Wavelength	000009.asd
350	 3.22713414947027E-02 
351	 3.25114643362532E-02 
352	 3.09696206825415E-02 
353	 3.09984736985856E-02 
354	 3.12467907174546E-02 
355	 3.16193648087439E-02 
356	 3.17414892064277E-02 
357	 0.031060951718774 
358	 3.10751645012612E-02 
359	 3.15186688209592E-02 
360	 3.22020176385145E-02 
361	 3.35200721706043E-02 
362	 3.35273066409367E-02 
363	 3.33713481465599E-02 
364	 3.40371808898182E-02 
365	 3.42231946535255E-02 
366	 0.034437431826659 
367	 3.48558211338505E-02 
368	 3.54435730181185E-02 
369	 3.57375270858183E-02 
370	 3.64027698597824E-02 
371	 3.75122987200209E-02 
372	 3.86411056789786E-02 
373	 3.93604991525924E-02 
374	 3.96831186649494E-02 
375	 4.00636555706543E-02 
376	 4.13518490350305E-02 
377	 4.21250539349122E-02 
378	 0.042313217879971 
379	 4.24074079941986E-02 
380	 4.35255542096003E-02 
381	 4.47300276108607E-02 
382	 4.53473424801743E-02 
383	 4.51958624536423E-02 
384	 4.56392137585356E-02 
385	 4.64042333835603E-02 
386	 4.72807806001909E-02 
387	 4.81144368673513E-02 
388	 4.87287753595264E-02 
389	 4.92167327309394E-02 
390	 4.97957897964168E-02 
391	 0.050738984481729 
392	 5.09069533191746E-02 
393	 5.11171558093082E-02 
394	 5.20111764400398E-02 
395	 5.29750853129089E-02 
396	 5.36220812941661E-02 
397	 5.39901017969659E-02 
398	 0.054441965523634 
399	 5.60093599480982E-02 
400	 5.66296141265236E-02 
401	 5.67783800021892E-02 
402	 5.81481364311172E-02 
403	 5.86171516607141E-02 
404	 5.91567211781285E-02 
405	 0.060225625514483 
406	 6.12255485686516E-02 
407	 6.22361739267766E-02 
408	 6.31656475662789E-02 
409	 6.39606842353952E-02 
410	 6.47792983542511E-02 
411	 6.51803148098493E-02 
412	 6.56597743817558E-02 
413	 6.67839038312298E-02 
414	 6.72755804246072E-02 
415	 6.76619729008551E-02 
416	 6.82580522385231E-02 
417	 6.90514488624344E-02 
418	 6.96998000655013E-02 
419	 7.00287762540634E-02 
420	 7.01208789802004E-02 
421	 7.04476420282124E-02 
422	 7.07490649007251E-02 
423	 7.11872320783058E-02 
424	 7.18650361324322E-02 
425	 7.22265900515333E-02 
426	 7.22177295101431E-02 
427	 7.22091502126503E-02 
428	 7.27175597663038E-02 
429	 7.28862303141656E-02 
430	 7.29979769301648E-02 
431	 0.07326369840731 
432	 7.36075620938909E-02 
433	 7.35904147054996E-02 
434	 7.36731446559193E-02 
435	 7.41703617270781E-02 
436	 7.44281669267698E-02 
437	 7.45343781383554E-02 
438	 7.45509597534431E-02 
439	 7.45622007793336E-02 
440	 7.48343752774355E-02 
441	 7.49873279700186E-02 
442	 7.49904924646387E-02 
443	 7.52381149296684E-02 
444	 7.54871856396132E-02 
445	 7.56248128005426E-02 
446	 7.56342041318646E-02 
447	 7.56510083189738E-02 
448	 0.075742850932359 
449	 7.57730179348817E-02 
450	 7.56215522536342E-02 
451	 7.58532114699517E-02 
452	 7.59780282868351E-02 
453	 7.59045087308431E-02 
454	 7.60201138462809E-02 
455	 7.60081220704753E-02 
456	 7.61212923632543E-02 
457	 7.64671291150645E-02 
458	 7.65391036289177E-02 
459	 7.64103928647131E-02 
460	 7.62875823703025E-02 
461	 7.63903358117423E-02 
462	 7.65944795866967E-02 
463	 7.65507302813258E-02 
464	 7.63490984682005E-02 
465	 7.65248733912477E-02 
466	 0.076668936224767 
467	 7.67621339901832E-02 
468	 7.68368966195319E-02 
469	 7.68541771940052E-02 
470	 7.68851840303395E-02 
471	 7.69010320654592E-02 
472	 7.68396369094954E-02 
473	 7.66801320203713E-02 
474	 7.67911397672221E-02 
475	 7.70991141616023E-02 
476	 7.70667501391437E-02 
477	 0.07706730658847 
478	 7.71111403704349E-02 
479	 7.71676683022843E-02 
480	 7.72962308604316E-02 
481	 7.73897902672954E-02 
482	 0.077449952687814 
483	 7.75110355272997E-02 
484	 7.74317236704359E-02 
485	 7.75355013974454E-02 
486	 7.77813324747241E-02 
487	 7.76521459525354E-02 
488	 7.76997148946125E-02 
489	 7.78192762265565E-02 
490	 7.78579779685461E-02 
491	 7.79450063882672E-02 
492	 0.078138032587515 
493	 7.82847185925996E-02 
494	 0.07819628394504 
495	 7.82750569021689E-02 
496	 7.83650055981416E-02 
497	 7.84375780987311E-02 
498	 0.078696634953728 
499	 7.88337600927953E-02 
500	 7.89166770402872E-02 
501	 7.90437641141952E-02 
502	 7.90390084735312E-02 
503	 7.91532547157435E-02 
504	 7.93977155384905E-02 
505	 7.96174960809905E-02 
506	 7.96515393639288E-02 
507	 7.96995857089399E-02 
508	 7.98692441911404E-02 
509	 8.00585483584292E-02 
510	 8.03099850602042E-02 
511	 8.05545851978841E-02 
512	 8.07268649808386E-02 
513	 8.08900655031051E-02 
514	 8.10734252214382E-02 
515	 8.12304190455117E-02 
516	 8.12813473692042E-02 
517	 8.15890716295872E-02 
518	 8.18821007662582E-02 
519	 0.08191550833346 
520	 8.16610392121005E-02 
521	 8.19120747574008E-02 
522	 0.082300568274319 
523	 8.22492336512113E-02 
524	 8.22394659680976E-02 
525	 8.25634993350791E-02 
526	 8.29952092539689E-02 
527	 8.28412915561662E-02 
528	 8.27462820529392E-02 
529	 8.28961961753657E-02 
530	 8.32014123081162E-02 
531	 8.31149134683844E-02 
532	 0.083353552918212 
533	 8.37177596724559E-02 
534	 8.36668479339231E-02 
535	 8.36766685132471E-02 
536	 0.083850440397462 
537	 8.40947608355201E-02 
538	 8.41070657443545E-02 
539	 8.41213530943871E-02 
540	 8.42657901925945E-02 
541	 8.45234309973843E-02 
542	 8.44630934674692E-02 
543	 8.44632244564145E-02 
544	 8.45962905189765E-02 
545	 8.47277267790038E-02 
546	 8.49295943873343E-02 
547	 8.51503520072321E-02 
548	 8.53182463358979E-02 
549	 8.53305803452032E-02 
550	 0.085562858924823 
551	 8.59158834405379E-02 
552	 8.61476861878477E-02 
553	 8.62121368888447E-02 
554	 8.63314789115688E-02 
555	 8.65800992962846E-02 
556	 8.68674026559825E-02 
557	 8.69204360121969E-02 
558	 0.086982338761456 
559	 8.72370195185266E-02 
560	 8.74218139057541E-02 
561	 8.74902036292492E-02 
562	 8.75378284790606E-02 
563	 8.77170456421801E-02 
564	 8.80008847328572E-02 
565	 8.82074544540255E-02 
566	 8.82525772019959E-02 
567	 8.82066006133624E-02 
568	 8.84012019009946E-02 
569	 8.86036511528059E-02 
570	 8.85602023103565E-02 
571	 8.86805047412957E-02 
572	 8.88762514275614E-02 
573	 8.90672687027617E-02 
574	 0.089202219674465 
575	 8.94024017385422E-02 
576	 8.96577226279167E-02 
577	 8.98855960013456E-02 
578	 8.98701148677313E-02 
579	 9.00274952767776E-02 
580	 9.03597028310978E-02 
581	 9.06833585655778E-02 
582	 9.08244288823213E-02 
583	 9.09977980949434E-02 
584	 9.12450928612552E-02 
585	 9.13760579073521E-02 
586	 9.14892742476898E-02 
587	 9.13354120373681E-02 
588	 9.08301742801089E-02 
589	 9.08517539126957E-02 
590	 9.09265522935219E-02 
591	 9.09880657375261E-02 
592	 9.12387394248225E-02 
593	 9.16219948823236E-02 
594	 9.17933811564319E-02 
595	 9.17434134644958E-02 
596	 9.20866583221287E-02 
597	 9.24464357783027E-02 
598	 9.27439833736748E-02 
599	 9.30100623285736E-02 
600	 9.33989710596694E-02 
601	 9.37294140505306E-02 
602	 9.39103015899369E-02 
603	 9.39528494816714E-02 
604	 9.39794256961982E-02 
605	 9.40775352972795E-02 
606	 9.42343352368235E-02 
607	 9.41903718976454E-02 
608	 9.42694410292489E-02 
609	 0.094369588050166 
610	 9.42432169612079E-02 
611	 9.42591017616441E-02 
612	 9.42926622763136E-02 
613	 9.43248456835687E-02 
614	 9.45533015968478E-02 
615	 9.45721400074436E-02 
616	 9.44339961819138E-02 
617	 9.43231413780176E-02 
618	 9.43688023500358E-02 
619	 0.09435879423715 
620	 9.43111799845267E-02 
621	 0.094387526089578 
622	 9.42110098713262E-02 
623	 9.40672554986537E-02 
624	 9.41095024744182E-02 
625	 9.39458052821811E-02 
626	 9.38951976891649E-02 
627	 0.093928213854157 
628	 9.38774291126794E-02 
629	 9.36201599450475E-02 
630	 9.35722824301241E-02 
631	 9.37294944950428E-02 
632	 9.36012261787347E-02 
633	 9.36662532571244E-02 
634	 9.37718658428464E-02 
635	 9.37566884772163E-02 
636	 0.09388833247634 
637	 9.38071603500079E-02 
638	 9.36536890737579E-02 
639	 9.38058073607805E-02 
640	 9.40014776204458E-02 
641	 9.40105021155789E-02 
642	 9.38225020403187E-02 
643	 9.37864448055294E-02 
644	 9.35022644875084E-02 
645	 9.30617905801838E-02 
646	 9.26912920927872E-02 
647	 9.24398343090123E-02 
648	 9.24718855407556E-02 
649	 9.27200124058553E-02 
650	 9.29089547245453E-02 
651	 9.30136757573902E-02 
652	 0.092852759943464 
653	 9.25264780734956E-02 
654	 9.28661665012453E-02 
655	 9.28795197322071E-02 
656	 9.26040519299399E-02 
657	 9.25726832056431E-02 
658	 9.27646511911077E-02 
659	 9.29807228978465E-02 
660	 9.31757152242507E-02 
661	 9.34449587658756E-02 
662	 9.33068795556534E-02 
663	 9.29828854479515E-02 
664	 9.28267710136942E-02 
665	 9.30555132593316E-02 
666	 9.33142974799762E-02 
667	 0.093293480361918 
668	 9.28517039935467E-02 
669	 9.29948060487458E-02 
670	 0.093193283968626 
671	 0.093065780301022 
672	 9.27522772745842E-02 
673	 9.28188600946212E-02 
674	 0.092955162980263 
675	 9.27860143707958E-02 
676	 9.29259834225301E-02 
677	 9.30268221064746E-02 
678	 9.28987474814062E-02 
679	 9.25578430169801E-02 
680	 0.092707106715263 
681	 0.092940057599263 
682	 9.29291254386349E-02 
683	 9.29076869529193E-02 
684	 9.29378215064634E-02 
685	 9.28278785704864E-02 
686	 9.23746461419818E-02 
687	 9.22590457260429E-02 
688	 9.21073592101184E-02 
689	 9.19302488650796E-02 
690	 9.21649581458612E-02 
691	 9.22313963407543E-02 
692	 9.20514237161954E-02 
693	 9.17536059417061E-02 
694	 9.18214133711798E-02 
695	 9.19991353527141E-02 
696	 9.23747542255201E-02 
697	 9.30221855640117E-02 
698	 9.29364041103158E-02 
699	 9.25823703623388E-02 
700	 9.24537178946189E-02 
701	 9.28991162906027E-02 
702	 9.31412734203742E-02 
703	 9.33752366681384E-02 
704	 9.37696410896528E-02 
705	 9.36628594217943E-02 
706	 9.38419707861459E-02 
707	 9.43561767490909E-02 
708	 9.48296763347876E-02 
709	 9.50244774520741E-02 
710	 9.50262593654803E-02 
711	 9.50198215179027E-02 
712	 9.52633641736036E-02 
713	 9.55695936221234E-02 
714	 9.57496681167813E-02 
715	 9.55565973871445E-02 
716	 9.43201768091105E-02 
717	 9.33120172614372E-02 
718	 9.29843128908376E-02 
719	 9.27549804239024E-02 
720	 9.35530290877746E-02 
721	 9.47093554301645E-02 
722	 9.54704225910095E-02 
723	 9.48704311725397E-02 
724	 9.45817345079002E-02 
725	 9.47205787428419E-02 
726	 9.48527780161835E-02 
727	 9.48247770906245E-02 
728	 9.51286825959586E-02 
729	 9.56264668312529E-02 
730	 9.58812904507558E-02 
731	 9.67367697227192E-02 
732	 9.77857304130894E-02 
733	 9.85518358366212E-02 
734	 9.86869133084651E-02 
735	 0.098949169258448 
736	 9.93879473170067E-02 
737	 9.98299661447024E-02 
738	 0.100080422931244 
739	 0.100543660135323 
740	 0.101054312663741 
741	 0.101198698040761 
742	 0.101605641689231 
743	 0.102022482867493 
744	 0.102300009673675 
745	 0.102571734551673 
746	 0.10264585995231 
747	 0.102695459894664 
748	 0.102875503819817 
749	 0.10293352253886 
750	 0.102952670827026 
751	 0.103045929263074 
752	 0.103272934735561 
753	 0.103133696494416 
754	 0.102952838656398 
755	 0.103000447512396 
756	 0.103344704064271 
757	 0.103216933686165 
758	 0.102795035309578 
759	 0.102218352726258 
760	 0.100442570711503 
761	 9.89341181868663E-02 
762	 9.87793221391567E-02 
763	 9.86657647459008E-02 
764	 9.95135786500768E-02 
765	 0.100566218797722 
766	 0.101414350972865 
767	 0.102070652001947 
768	 0.102560000987009 
769	 0.102686197534795 
770	 0.102496951932549 
771	 0.102699895057008 
772	 0.102973949202339 
773	 0.103017360220896 
774	 0.10271046497703 
775	 0.102907838724834 
776	 0.10289197794143 
777	 0.102630410930946 
778	 0.102701731221082 
779	 0.102654207946929 
780	 0.10262371254174 
781	 0.102663092472592 
782	 0.102526663371165 
783	 0.10222959520591 
784	 0.101837947998113 
785	 0.101473844126622 
786	 0.10138528044988 
787	 0.101176919247736 
788	 0.100843187720288 
789	 0.100646436313346 
790	 0.100643778679863 
791	 0.10060913626052 
792	 0.100505711557623 
793	 0.100552474842289 
794	 0.100519180616166 
795	 0.100299649611715 
796	 9.99197596151362E-02 
797	 9.96487719065207E-02 
798	 9.95764465510348E-02 
799	 0.099435192746411 
800	 9.90227853299085E-02 
801	 9.92048451618439E-02 
802	 9.92994501862954E-02 
803	 9.91480231036048E-02 
804	 9.90467281768621E-02 
805	 9.89564593619798E-02 
806	 9.90271120414413E-02 
807	 9.91483392664931E-02 
808	 9.88402933802315E-02 
809	 9.83027595374102E-02 
810	 9.77108898522658E-02 
811	 9.72080588260442E-02 
812	 9.68738860432339E-02 
813	 9.59849681638718E-02 
814	 9.48948027605038E-02 
815	 9.44977358351802E-02 
816	 9.44621237487614E-02 
817	 9.43916120941105E-02 
818	 9.44173427655531E-02 
819	 9.49499964174147E-02 
820	 9.53737480786137E-02 
821	 9.52774798724343E-02 
822	 9.47808785512081E-02 
823	 0.094682612915051 
824	 9.45931087686469E-02 
825	 9.48649395154352E-02 
826	 9.54618804121116E-02 
827	 9.52615585318958E-02 
828	 9.49386096324554E-02 
829	 9.46541038281911E-02 
830	 9.44646525557147E-02 
831	 9.46671862557403E-02 
832	 9.48063761185824E-02 
833	 9.48365584708771E-02 
834	 9.49269645105428E-02 
835	 9.48538424108795E-02 
836	 9.48821270096018E-02 
837	 9.50815628137401E-02 
838	 9.53010656893949E-02 
839	 9.55074009393467E-02 
840	 9.54666275783374E-02 
841	 9.51861092830158E-02 
842	 9.50847005178399E-02 
843	 9.52326492501885E-02 
844	 9.54411709665434E-02 
845	 0.095531020563628 
846	 9.55948570205167E-02 
847	 9.54020686614613E-02 
848	 9.52191677505222E-02 
849	 9.53477750336574E-02 
850	 9.52244649208166E-02 
851	 9.50862186818463E-02 
852	 9.50170709450305E-02 
853	 9.49297521103659E-02 
854	 9.44158089336661E-02 
855	 9.42940739515507E-02 
856	 9.47430581545929E-02 
857	 9.51515234970369E-02 
858	 9.47944202386121E-02 
859	 9.43769747009399E-02 
860	 9.43415972502706E-02 
861	 9.43886734717113E-02 
862	 9.42115022059938E-02 
863	 9.42116303367459E-02 
864	 9.45133379630644E-02 
865	 9.41611198271192E-02 
866	 9.34831371377727E-02 
867	 9.31871154971808E-02 
868	 9.36158927455546E-02 
869	 9.34376048134243E-02 
870	 9.33814938805805E-02 
871	 9.35030289270757E-02 
872	 9.34624384887691E-02 
873	 9.25267793431929E-02 
874	 9.22680782029877E-02 
875	 9.27952879704963E-02 
876	 9.30792542906979E-02 
877	 9.24057193968767E-02 
878	 9.18500344355089E-02 
879	 9.18648647955452E-02 
880	 9.20651155292198E-02 
881	 9.19080519095117E-02 
882	 9.17834639361793E-02 
883	 9.17136550112123E-02 
884	 9.11398661874923E-02 
885	 9.12142334799446E-02 
886	 9.13202178744081E-02 
887	 9.09177706032881E-02 
888	 9.02270462988331E-02 
889	 0.090129426749773 
890	 9.02278749717012E-02 
891	 8.99435601079828E-02 
892	 8.91198776003154E-02 
893	 8.87248180217584E-02 
894	 8.80515679210499E-02 
895	 8.63907280070698E-02 
896	 8.57629740395305E-02 
897	 8.49634553020606E-02 
898	 8.44105908060468E-02 
899	 8.48753451376017E-02 
900	 8.53496631314967E-02 
901	 8.54826461450869E-02 
902	 8.56326081277916E-02 
903	 8.59740082869537E-02 
904	 8.43458662729395E-02 
905	 8.41369618219302E-02 
906	 8.51389669307804E-02 
907	 8.51049578178332E-02 
908	 8.34204838391399E-02 
909	 8.30546490821627E-02 
910	 8.36090909390377E-02 
911	 8.21931230463507E-02 
912	 8.12359462638513E-02 
913	 0.081646531461511 
914	 8.22163113474211E-02 
915	 8.08110156206642E-02 
916	 8.07708289847648E-02 
917	 0.081135860441489 
918	 8.14330283250296E-02 
919	 8.19371290334274E-02 
920	 8.24599268255104E-02 
921	 8.24957603053277E-02 
922	 8.17725445034509E-02 
923	 8.03969308229939E-02 
924	 8.01500719616052E-02 
925	 8.01248776585715E-02 
926	 0.079789400645756 
927	 0.079732344598135 
928	 7.88324549792383E-02 
929	 0.080053655875255 
930	 8.16843606931931E-02 
931	 7.02658988736304E-02 
932	 7.16642090179929E-02 
933	 7.81882432687049E-02 
934	 7.44205550299503E-02 
935	 6.26641381058769E-02 
936	 6.83548353866727E-02 
937	 7.78989362458951E-02 
938	 7.60950805326818E-02 
939	 5.88185438507032E-02 
940	 6.47737205670526E-02 
941	 0.070418816330842 
942	 6.83972647269156E-02 
943	 7.87209807880229E-02 
944	 7.85029215548671E-02 
945	 7.28104306622457E-02 
946	 6.97977600395215E-02 
947	 7.22740278108529E-02 
948	 6.91852265829946E-02 
949	 6.81819216738927E-02 
950	 7.01626711164057E-02 
951	 6.73321217515625E-02 
952	 7.08433516822442E-02 
953	 7.02563938966571E-02 
954	 6.75861192698599E-02 
955	 7.56596523404883E-02 
956	 6.69641029110941E-02 
957	 6.77908879262482E-02 
958	 7.78237819398743E-02 
959	 7.36918681380516E-02 
960	 6.68861446790164E-02 
961	 6.68278446802162E-02 
962	 0.071555166572893 
963	 7.30785406094637E-02 
964	 7.72799437038717E-02 
965	 0.077853703425569 
966	 7.50668623590039E-02 
967	 0.073047874241633 
968	 7.08100848944246E-02 
969	 7.33528309864564E-02 
970	 0.07675701731495 
971	 7.43128919660769E-02 
972	 7.11014649687204E-02 
973	 7.23191392612645E-02 
974	 7.47144869022127E-02 
975	 7.29133213956355E-02 
976	 0.074962163060357 
977	 7.34119357623606E-02 
978	 7.05830729850725E-02 
979	 0.070524215389802 
980	 6.76759842755586E-02 
981	 7.19578037395034E-02 
982	 7.82676696674241E-02 
983	 7.89893054649643E-02 
984	 7.21254517024883E-02 
985	 7.31317140982503E-02 
986	 7.67215992760194E-02 
987	 0.076198798371646 
988	 7.35971710268589E-02 
989	 7.49036966973264E-02 
990	 7.42061880261157E-02 
991	 7.05150832706614E-02 
992	 7.28955852689336E-02 
993	 0.076413877126184 
994	 7.72472174785342E-02 
995	 7.46387803118161E-02 
996	 7.14710331678829E-02 
997	 7.35110366692868E-02 
998	 7.52761608356287E-02 
999	 7.44696419013442E-02 
1000	 7.30126591026936E-02 
1001	 7.60591657710731E-02 
1002	 0.076115003017354 
1003	 7.81095251423766E-02 
1004	 7.88345994929042E-02 
1005	 7.92140094747159E-02 
1006	 7.90804570749396E-02 
1007	 7.82245382718917E-02 
1008	 7.84098428530618E-02 
1009	 0.07868833586594 
1010	 7.85352492232276E-02 
1011	 8.02435785607114E-02 
1012	 8.28366439443749E-02 
1013	 8.31454347609515E-02 
1014	 8.23089377687534E-02 
1015	 8.13844749921781E-02 
1016	 7.88022865453645E-02 
1017	 7.67094581047046E-02 
1018	 7.44342332978411E-02 
1019	 7.33225217581913E-02 
1020	 0.072028373652839 
1021	 7.16535612084277E-02 
1022	 7.20919946701566E-02 
1023	 7.32565058335754E-02 
1024	 7.58081963712073E-02 
1025	 7.72136484332546E-02 
1026	 7.78127458631319E-02 
1027	 0.077531458653333 
1028	 7.58548915942256E-02 
1029	 7.55676957889347E-02 
1030	 7.44136338920245E-02 
1031	 7.35880966523748E-02 
1032	 7.39139188112909E-02 
1033	 7.38401404995236E-02 
1034	 7.44175303515953E-02 
1035	 7.75035397978874E-02 
1036	 7.87555039997065E-02 
1037	 7.91236055813746E-02 
1038	 7.97566955789922E-02 
1039	 8.04919449075791E-02 
1040	 8.12038134550578E-02 
1041	 8.23046126852576E-02 
1042	 8.22465238651639E-02 
1043	 8.10795742062314E-02 
1044	 7.96256663254521E-02 
1045	 7.76034937140871E-02 
1046	 7.63098688921459E-02 
1047	 7.51045439712576E-02 
1048	 7.48334902261525E-02 
1049	 7.54357255139765E-02 
1050	 7.76479270990186E-02 
1051	 7.84600123603288E-02 
1052	 7.94434487730538E-02 
1053	 8.06058311266062E-02 
1054	 8.06811956431458E-02 
1055	 8.06598115331668E-02 
1056	 7.99006168523949E-02 
1057	 7.86815141702686E-02 
1058	 0.078841160198636 
1059	 7.88156628025406E-02 
1060	 8.07625126452969E-02 
1061	 8.43818948202139E-02 
1062	 8.55991926963298E-02 
1063	 8.60449858110871E-02 
1064	 8.59203346762902E-02 
1065	 8.49079081638137E-02 
1066	 8.28154646038309E-02 
1067	 8.07250216484264E-02 
1068	 8.05057740295995E-02 
1069	 8.21478222767687E-02 
1070	 8.19380099032848E-02 
1071	 8.24715472020947E-02 
1072	 8.35979418692799E-02 
1073	 8.24178501114019E-02 
1074	 8.28265049515586E-02 
1075	 8.42055720228149E-02 
1076	 8.35548934469431E-02 
1077	 8.44932152609902E-02 
1078	 8.54904483884738E-02 
1079	 0.08567001321877 
1080	 8.53164179833173E-02 
1081	 8.63705489660217E-02 
1082	 8.44329159130522E-02 
1083	 8.32439212994459E-02 
1084	 8.50273952364428E-02 
1085	 8.52035306508517E-02 
1086	 8.73153075773966E-02 
1087	 8.99034677099294E-02 
1088	 8.88086342335449E-02 
1089	 0.087338315911307 
1090	 8.66974757186436E-02 
1091	 8.56952781040288E-02 
1092	 8.60100927556009E-02 
1093	 8.76695596974218E-02 
1094	 8.78253175468411E-02 
1095	 8.77495550119572E-02 
1096	 8.68166859627067E-02 
1097	 8.68651304354657E-02 
1098	 8.73427302882265E-02 
1099	 8.83359399739335E-02 
1100	 9.09408516494575E-02 
1101	 9.27427134448692E-02 
1102	 9.18398330253597E-02 
1103	 9.18548147901399E-02 
1104	 9.17928931665264E-02 
1105	 8.88948240703224E-02 
1106	 8.77843844033886E-02 
1107	 8.92411169278861E-02 
1108	 9.06518282127164E-02 
1109	 9.23551055368795E-02 
1110	 9.28669434093442E-02 
1111	 9.15620265226164E-02 
1112	 9.08789861688226E-02 
1113	 8.89923153343314E-02 
1114	 8.70417802876231E-02 
1115	 8.82337184147313E-02 
1116	 8.88887508663596E-02 
1117	 7.82908858244834E-02 
1118	 7.59342758844508E-02 
1119	 7.44498082121914E-02 
1120	 6.22907631971988E-02 
1121	 0.073028396014632 
1122	 7.84188964577271E-02 
1123	 0.043737408948202 
1124	 0.01340103261859 
1125	 2.20631572956081E-02 
1126	 2.70889988148005E-02 
1127	 3.40784618239655E-02 
1128	 8.54832482648901E-02 
1129	 9.75128946332999E-02 
1130	 0.083359928926587 
1131	 0.069049523315338 
1132	 5.51966057851127E-02 
1133	 4.98932094951099E-02 
1134	 5.91687954811835E-02 
1135	 6.63123483262633E-02 
1136	 6.94493175627948E-02 
1137	 0.072016279995324 
1138	 6.44703218937658E-02 
1139	 6.07560454876964E-02 
1140	 0.067440988962846 
1141	 0.064856975256297 
1142	 6.54829531934394E-02 
1143	 7.08067411042899E-02 
1144	 6.89827985809672E-02 
1145	 5.60211334027119E-02 
1146	 5.75284319144153E-02 
1147	 6.72414592498741E-02 
1148	 6.64872073819712E-02 
1149	 6.74941045124203E-02 
1150	 7.76715153304452E-02 
1151	 6.87632442622641E-02 
1152	 6.14530311002786E-02 
1153	 5.90252794720421E-02 
1154	 0.057698282216144 
1155	 7.40273332883354E-02 
1156	 8.25038233736822E-02 
1157	 0.085069723050708 
1158	 9.09101925013255E-02 
1159	 9.31722149983526E-02 
1160	 8.98580526419493E-02 
1161	 9.02804961587762E-02 
1162	 9.20342186772155E-02 
1163	 9.39079906759604E-02 
1164	 9.57654780661374E-02 
1165	 9.72874037518835E-02 
1166	 9.83761413553693E-02 
1167	 0.101019586642746 
1168	 0.102888020657915 
1169	 0.102025836355418 
1170	 0.102841828938569 
1171	 0.104022402134848 
1172	 0.103542929769493 
1173	 0.104170764146139 
1174	 0.106070832413449 
1175	 0.105830059047386 
1176	 0.105594134610626 
1177	 0.105399432737183 
1178	 0.105162107394705 
1179	 0.103967666303536 
1180	 0.103656328061878 
1181	 0.103259229706181 
1182	 0.103557369099305 
1183	 0.105330140221832 
1184	 0.105078865753834 
1185	 0.104703066010742 
1186	 0.104778047108399 
1187	 0.101659605653932 
1188	 0.100123630576705 
1189	 0.100830386717569 
1190	 0.102294813132742 
1191	 0.105756631284763 
1192	 0.108898875248228 
1193	 0.109700033427219 
1194	 0.108769242864641 
1195	 0.108483961020434 
1196	 0.106711034392248 
1197	 0.105566341490133 
1198	 0.104723046055139 
1199	 0.104636813525168 
1200	 0.104850330898177 
1201	 0.105277623494997 
1202	 0.107455103485367 
1203	 0.107323345722379 
1204	 0.10712864168868 
1205	 0.105404807490824 
1206	 0.103686912792523 
1207	 0.104124823956332 
1208	 0.105263380915566 
1209	 0.106567851199527 
1210	 0.107227254893999 
1211	 0.107919265809931 
1212	 0.108655285047611 
1213	 0.108868100438606 
1214	 0.109228072963511 
1215	 0.110193010329768 
1216	 0.110801825411778 
1217	 0.110406229154683 
1218	 0.111012017764184 
1219	 0.112329182639451 
1220	 0.113317475059764 
1221	 0.114236937935011 
1222	 0.116116700278042 
1223	 0.117019158572397 
1224	 0.117405727401712 
1225	 0.117857884533948 
1226	 0.117682551479016 
1227	 0.118053813940389 
1228	 0.118188843271937 
1229	 0.118010281442659 
1230	 0.117379880293477 
1231	 0.117316222203918 
1232	 0.11698437720895 
1233	 0.117406894092805 
1234	 0.118778004665698 
1235	 0.119605538069782 
1236	 0.120660603372053 
1237	 0.1213402102022 
1238	 0.121514657218109 
1239	 0.121908429266092 
1240	 0.122161959094508 
1241	 0.122525027049318 
1242	 0.12277440912689 
1243	 0.123525221742799 
1244	 0.125177282250573 
1245	 0.125973686979996 
1246	 0.126571069846647 
1247	 0.126881122485625 
1248	 0.126394549084987 
1249	 0.124552952242934 
1250	 0.124149717226023 
1251	 0.123747428909102 
1252	 0.123786785038446 
1253	 0.124098777985821 
1254	 0.125020877808921 
1255	 0.127012005137265 
1256	 0.12789925373768 
1257	 0.129426488658885 
1258	 0.129980952437706 
1259	 0.128782037764105 
1260	 0.128537795082256 
1261	 0.127919401423557 
1262	 0.128190359664075 
1263	 0.129695882382047 
1264	 0.130327363956009 
1265	 0.131289476626956 
1266	 0.133498973025835 
1267	 0.134009723228318 
1268	 0.134403891487876 
1269	 0.134525829217465 
1270	 0.134369909623323 
1271	 0.133815109323622 
1272	 0.132441288227207 
1273	 0.131872890417034 
1274	 0.131170872297498 
1275	 0.130867213223244 
1276	 0.131052972801398 
1277	 0.131572865450053 
1278	 0.132384126992535 
1279	 0.133240617194229 
1280	 0.135039134728418 
1281	 0.135582174682241 
1282	 0.135694488634701 
1283	 0.135452980689589 
1284	 0.133978475251267 
1285	 0.133026656702449 
1286	 0.132949221367236 
1287	 0.133375281549216 
1288	 0.134156936128706 
1289	 0.135500113778338 
1290	 0.135627093547537 
1291	 0.135152961524554 
1292	 0.134600513474006 
1293	 0.133172897625431 
1294	 0.132518238700962 
1295	 0.131682863043292 
1296	 0.131646230882075 
1297	 0.132700239350617 
1298	 0.132831796878001 
1299	 0.133035975341531 
1300	 0.133371891493761 
1301	 0.132241864728187 
1302	 0.132903790581604 
1303	 0.136675722613691 
1304	 0.137617731562939 
1305	 0.137747072839374 
1306	 0.137866718774467 
1307	 0.137061403622889 
1308	 0.133404794381319 
1309	 0.132713907518621 
1310	 0.133502965375556 
1311	 0.134224460400684 
1312	 0.135288245206631 
1313	 0.135144445893299 
1314	 0.134722626764012 
1315	 0.133931798672919 
1316	 0.131832337854644 
1317	 0.1307085300586 
1318	 0.129457460619027 
1319	 0.128915609884403 
1320	 0.128348497553962 
1321	 0.128870525256013 
1322	 0.132039671603072 
1323	 0.132671001424325 
1324	 0.133499170146041 
1325	 0.132717732167619 
1326	 0.128528355011412 
1327	 0.12528098921629 
1328	 0.11943910247446 
1329	 0.116030265450246 
1330	 0.113699059314685 
1331	 0.112254567280585 
1332	 0.116141683847369 
1333	 0.117799497355561 
1334	 0.117570604269134 
1335	 0.117533130806075 
1336	 0.118492354340585 
1337	 0.120211515223486 
1338	 0.118137604464779 
1339	 0.115942528920814 
1340	 0.111687975969519 
1341	 9.69611829502921E-02 
1342	 9.40181706904685E-02 
1343	 9.86286773531107E-02 
1344	 0.100941356288415 
1345	 0.115220326183519 
1346	 0.124220386845633 
1347	 0.13388571561697 
1348	 0.138201394670247 
1349	 0.126275012873228 
1350	 0.114045086507521 
1351	 1.38952932449295E-02 
1352	-5.49828180893024E-02 
1353	 7.51768106530259E-02 
1354	 0.182413640814144 
1355	 0.927895230474206 
1356	 2.07719715207178 
1357	 0.599385286147066 
1358	 0.542220618819457 
1359	 0.74311209177856 
1360	 0.537982259339953 
1361	 0.853286477600136 
1362	 1.29521935056733 
1363	 1.09426221034135 
1364	 0.425411635493353 
1365	 0.191923483221702 
1366	-0.465299716323331 
1367	-1.07513142068051 
1368	-2.27214650287993 
1369	-4.18521353505705 
1370	 1.89313392123445 
1371	 0.931689283996051 
1372	 1.05564367503738 
1373	 2.76264181813882 
1374	 0.804348572233677 
1375	 1.09594608598582 
1376	 2.11438607640875 
1377	 5.06883332906613 
1378	-0.756721597039775 
1379	-0.726911425152184 
1380	 5.28463561744265 
1381	 1.8305922821057 
1382	 0.432687909338924 
1383	 0.220094903548336 
1384	-0.068571580937652 
1385	-0.372877196832766 
1386	-1.40575325183302 
1387	-0.894274731379649 
1388	-1.09557530037486 
1389	-0.788948203985429 
1390	-0.935976920059252 
1391	-1.42349213974591 
1392	-1.85013440436263 
1393	-3.6677309950259 
1394	 69.1535359736835 
1395	 2.84807435537084 
1396	 2.3454946748342 
1397	 2.64116926247679 
1398	 3.04710858926313 
1399	 12.5666739695489 
1400	-3.99164798231955 
1401	-0.678839239137994 
1402	-0.178312217846853 
1403	 0.713165764799718 
1404	 0.812059463223353 
1405	 0.386789909265288 
1406	 0.238643102652486 
1407	-1.21354073845931 
1408	-2.19127485381745 
1409	 3.30248193874374 
1410	-0.169843327603575 
1411	-0.40596843248597 
1412	-0.570596199104087 
1413	-0.793452202578068 
1414	-1.03039898682235 
1415	-5.20497864896631 
1416	 3.70845903425586 
1417	 1.19388522310865 
1418	 0.876902713528951 
1419	 0.865434912795039 
1420	 1.39206052450016 
1421	 1.67536700558036 
1422	 3.45674287480584 
1423	-5.13301460141932 
1424	-1.10254538277455 
1425	 8.69296309465856E-02 
1426	 0.536518531070264 
1427	 0.574635472638448 
1428	 0.720110444521459 
1429	 0.577156986262523 
1430	 0.162084998900248 
1431	 0.134503841570083 
1432	 0.247810858346578 
1433	 0.222737103860667 
1434	 0.317573094334915 
1435	 0.268972821741477 
1436	-0.405391593251254 
1437	-0.443019469810635 
1438	-6.07086748103378E-02 
1439	 2.18289367270895E-02 
1440	 0.271310691094279 
1441	 0.22936384578835 
1442	-1.43654555730442E-02 
1443	-9.36037968575897E-02 
1444	-0.241804088158063 
1445	-0.240993393992894 
1446	-0.124273757836533 
1447	-0.033231246521553 
1448	 0.128574849023185 
1449	 0.18939792429895 
1450	 0.223564779916636 
1451	 0.22546230897311 
1452	 0.164658102010153 
1453	 0.138122748330586 
1454	 0.114547838339216 
1455	 0.100436170832269 
1456	 0.101442256574705 
1457	 0.114980050345413 
1458	 0.12926697553943 
1459	 0.157966694590505 
1460	 0.164794447848402 
1461	 0.169299980502357 
1462	 0.167576847462082 
1463	 0.153530012544863 
1464	 0.144479683698247 
1465	 0.136522092628208 
1466	 0.112369241461735 
1467	 6.27128994705791E-02 
1468	 4.34532939835312E-02 
1469	 2.04976295740949E-02 
1470	 2.78400749967641E-02 
1471	 8.12055702093978E-02 
1472	 0.114250289628704 
1473	 0.152272840939217 
1474	 0.169076446056967 
1475	 0.165174525452453 
1476	 0.179874067226495 
1477	 0.209979718854552 
1478	 0.212950402677524 
1479	 0.213988791748272 
1480	 0.208873115773119 
1481	 0.183456087819882 
1482	 0.166668050582132 
1483	 0.147097871593144 
1484	 0.144504064754033 
1485	 0.153055104000051 
1486	 0.150578546973294 
1487	 0.165247249410973 
1488	 0.155069325899251 
1489	 0.12163556700447 
1490	 0.108902650784617 
1491	 0.091126117014112 
1492	 8.90167683966978E-02 
1493	 0.103808544174961 
1494	 0.109596832253325 
1495	 0.113366951811977 
1496	 0.120004317286318 
1497	 0.128530273781875 
1498	 0.131843006783922 
1499	 0.13488973958636 
1500	 0.138723914118825 
1501	 0.136160588422571 
1502	 0.133300017949689 
1503	 0.130708374414961 
1504	 0.128985040781212 
1505	 0.129694711798498 
1506	 0.130755074156978 
1507	 0.132178049135692 
1508	 0.135644483279403 
1509	 0.138480693846368 
1510	 0.141396972384164 
1511	 0.142789250520818 
1512	 0.145125271156363 
1513	 0.144793093637556 
1514	 0.141566702974481 
1515	 0.140244314497417 
1516	 0.139105223943455 
1517	 0.137782192950811 
1518	 0.136360117626283 
1519	 0.135395165578539 
1520	 0.133506742300753 
1521	 0.134009285474528 
1522	 0.136033705461006 
1523	 0.137625901227679 
1524	 0.141158441025351 
1525	 0.142386187712233 
1526	 0.142384605469681 
1527	 0.142881924759425 
1528	 0.142788196759602 
1529	 0.142593573806303 
1530	 0.142379194711119 
1531	 0.142251033437676 
1532	 0.140822158441068 
1533	 0.141431545634412 
1534	 0.144349202425681 
1535	 0.145155086909591 
1536	 0.146517634883192 
1537	 0.146685531721978 
1538	 0.143666118861917 
1539	 0.143424578082163 
1540	 0.144098524002188 
1541	 0.145130451293792 
1542	 0.148516369112215 
1543	 0.150018663986566 
1544	 0.150732303244408 
1545	 0.151407124651241 
1546	 0.150929834748031 
1547	 0.151243004618174 
1548	 0.152732270638306 
1549	 0.152798887276703 
1550	 0.15222855929931 
1551	 0.151634349736785 
1552	 0.149382526046536 
1553	 0.14848028960323 
1554	 0.148672080272523 
1555	 0.148493205468895 
1556	 0.149036686495948 
1557	 0.148982317655461 
1558	 0.148140308214156 
1559	 0.147628623301588 
1560	 0.146283815493459 
1561	 0.146392096793919 
1562	 0.147200698791454 
1563	 0.149211406466145 
1564	 0.151120009850667 
1565	 0.152205483853787 
1566	 0.151502670587102 
1567	 0.150858361859013 
1568	 0.148153796949601 
1569	 0.147052632721432 
1570	 0.149596715864059 
1571	 0.150447301587342 
1572	 0.153909544582892 
1573	 0.157178555584228 
1574	 0.155897079055346 
1575	 0.153316446722506 
1576	 0.149160396884675 
1577	 0.147437432447394 
1578	 0.148011649991602 
1579	 0.149252681506242 
1580	 0.152447501769654 
1581	 0.152930932114609 
1582	 0.152737234597101 
1583	 0.152914499849699 
1584	 0.150940482852569 
1585	 0.149466878519821 
1586	 0.14761901942486 
1587	 0.144076545432715 
1588	 0.143491706443009 
1589	 0.144593040397905 
1590	 0.144032227568305 
1591	 0.143805552253588 
1592	 0.144451884203673 
1593	 0.14508864427099 
1594	 0.145043447011008 
1595	 0.14573175732645 
1596	 0.146135065825521 
1597	 0.14483684663058 
1598	 0.144923895023945 
1599	 0.146912278275995 
1600	 0.147036172905652 
1601	 0.145424847676877 
1602	 0.146408972519321 
1603	 0.148397788650282 
1604	 0.150150565990785 
1605	 0.153259148374207 
1606	 0.155403742315935 
1607	 0.156944175534356 
1608	 0.158148450430606 
1609	 0.159804521917993 
1610	 0.159722587817911 
1611	 0.157380281105844 
1612	 0.157927692967664 
1613	 0.15926955793216 
1614	 0.159769745645634 
1615	 0.162640629002124 
1616	 0.161422182305156 
1617	 0.156664315492822 
1618	 0.154467942165668 
1619	 0.150223153414225 
1620	 0.150413260978053 
1621	 0.15414830946985 
1622	 0.156558697364738 
1623	 0.161750480556742 
1624	 0.162812446903128 
1625	 0.161777085479669 
1626	 0.160235235489271 
1627	 0.156797857171924 
1628	 0.153506551192547 
1629	 0.148418440296596 
1630	 0.147199543968432 
1631	 0.146716779187426 
1632	 0.147722770177794 
1633	 0.152883151571576 
1634	 0.154572399270548 
1635	 0.15464269047705 
1636	 0.155553095446265 
1637	 0.156207411661144 
1638	 0.156580939867691 
1639	 0.157000200715824 
1640	 0.15837579430921 
1641	 0.160529633123844 
1642	 0.160395693322195 
1643	 0.159811103506999 
1644	 0.159196475233447 
1645	 0.156554083768533 
1646	 0.155218002325728 
1647	 0.155644874786353 
1648	 0.154227308248209 
1649	 0.15081611631727 
1650	 0.150339127937207 
1651	 0.150476292015792 
1652	 0.150757759865911 
1653	 0.153340755166749 
1654	 0.152954500497365 
1655	 0.150915909307287 
1656	 0.150738032765582 
1657	 0.150044710669478 
1658	 0.150107934420414 
1659	 0.151445818777579 
1660	 0.151352986625562 
1661	 0.151018835662781 
1662	 0.151030174987805 
1663	 0.150948584220744 
1664	 0.152691540389743 
1665	 0.15190559945613 
1666	 0.151947202192932 
1667	 0.153770365643097 
1668	 0.153673248221664 
1669	 0.1535717718838 
1670	 0.152024196884705 
1671	 0.15123346478677 
1672	 0.151138357458039 
1673	 0.150672958126764 
1674	 0.151951680638807 
1675	 0.152555712878493 
1676	 0.154212594194481 
1677	 0.154748066073588 
1678	 0.156287108621895 
1679	 0.159047179606987 
1680	 0.157064060927979 
1681	 0.158412543196872 
1682	 0.159755258826905 
1683	 0.156159486074155 
1684	 0.154782354705494 
1685	 0.154346557786151 
1686	 0.153866837577188 
1687	 0.153896054344855 
1688	 0.154445874503149 
1689	 0.15434561429551 
1690	 0.151828768772726 
1691	 0.150943439650477 
1692	 0.151570273584362 
1693	 0.151917279851882 
1694	 0.154793086798304 
1695	 0.153925576158482 
1696	 0.15152992818807 
1697	 0.152294043227703 
1698	 0.150682964096417 
1699	 0.151630064366371 
1700	 0.155319577855753 
1701	 0.154786257625118 
1702	 0.151329744860769 
1703	 0.150574589879157 
1704	 0.148644582777731 
1705	 0.145596618020423 
1706	 0.147401654359225 
1707	 0.148607478614965 
1708	 0.148849911329707 
1709	 0.150146121814242 
1710	 0.149985111721733 
1711	 0.150563395319715 
1712	 0.150253112392711 
1713	 0.149384623304624 
1714	 0.149373558367956 
1715	 0.145573600092445 
1716	 0.144364273150963 
1717	 0.146927634922356 
1718	 0.14921897624879 
1719	 0.154032603237676 
1720	 0.154586175669283 
1721	 0.152397811466349 
1722	 0.144064760433677 
1723	 0.139499869149621 
1724	 0.135343128271026 
1725	 0.133235064102368 
1726	 0.134688837553874 
1727	 0.135603392848187 
1728	 0.138323462328233 
1729	 0.138747392408325 
1730	 0.136637153219179 
1731	 0.136820175639141 
1732	 0.136996017072537 
1733	 0.137490293510558 
1734	 0.14083341666009 
1735	 0.141534115778173 
1736	 0.141330545795104 
1737	 0.14314697761643 
1738	 0.144030052879773 
1739	 0.144871427231128 
1740	 0.139794047701325 
1741	 0.131810461495688 
1742	 0.135312802725564 
1743	 0.141247028450523 
1744	 0.140843031907409 
1745	 0.14126057495274 
1746	 0.140766529832852 
1747	 0.140467180441588 
1748	 0.145897924268538 
1749	 0.146016134231932 
1750	 0.146659490330653 
1751	 0.149078949144295 
1752	 0.14653678050472 
1753	 0.143079507278204 
1754	 0.138025106584909 
1755	 0.134535492964109 
1756	 0.137267897174483 
1757	 0.14537499146926 
1758	 0.153726778698782 
1759	 0.155694272633023 
1760	 0.150889752081773 
1761	 0.147977233090118 
1762	 0.14603654416944 
1763	 0.146766389497659 
1764	 0.155936645873435 
1765	 0.159847782346581 
1766	 0.160525683753054 
1767	 0.158078141977187 
1768	 0.150757720188485 
1769	 0.158421752931886 
1770	 0.168353793549142 
1771	 0.178251868538012 
1772	 0.185721636284185 
1773	 0.171957231331246 
1774	 0.164437403643055 
1775	 0.163181200263146 
1776	 0.155482085713002 
1777	 0.150616440785562 
1778	 0.138899996941356 
1779	 0.116858625634064 
1780	 0.116602720787868 
1781	 0.13273868627963 
1782	 0.160778427043005 
1783	 0.167177793967697 
1784	 0.171979195818333 
1785	 0.156267568340996 
1786	 0.125054413458853 
1787	 0.126469650745052 
1788	 0.110549584988974 
1789	 8.01022265630807E-02 
1790	 6.49015344512062E-02 
1791	 4.86749219579246E-02 
1792	 4.56578318671955E-02 
1793	 6.90000453316466E-02 
1794	 0.104813369150579 
1795	 0.17333669702322 
1796	 0.2952342871895 
1797	 0.378461271882477 
1798	 0.502859039158833 
1799	 0.609500260471858 
1800	 0.571590660956642 
1801	 0.496695420301937 
1802	 0.531474945858167 
1803	 0.523219689322218 
1804	 0.552896438321901 
1805	 0.636390455163887 
1806	 0.661562772657935 
1807	 0.765699786423068 
1808	 1.00569632106684 
1809	 1.03687787260598 
1810	 1.1060054662837 
1811	 0.989610162001583 
1812	 0.479503079857855 
1813	 0.379328071365984 
1814	 0.403734876266786 
1815	 0.375361563925304 
1816	 0.431341700842212 
1817	 0.646352736721715 
1818	 0.711747339955396 
1819	 0.613524811542064 
1820	 0.649427908991914 
1821	 0.803757053668967 
1822	 0.898577223238463 
1823	 1.03972467104801 
1824	 1.13492287375584 
1825	 1.36306318323355 
1826	 1.30040017650431 
1827	 1.17868514759217 
1828	 0.916156886351689 
1829	 0.8452804785252 
1830	 0.747839974680485 
1831	 0.747516065593308 
1832	 0.879832391728879 
1833	 0.933676723462766 
1834	 1.01259898724981 
1835	 1.05533477922085 
1836	 1.06404395328602 
1837	 0.991435396894943 
1838	 0.956429241296687 
1839	 0.860939327132004 
1840	 0.870337913997171 
1841	 0.951474991061119 
1842	 0.975296358142258 
1843	 1.08543169486933 
1844	 1.12060355705549 
1845	 0.932836708821258 
1846	 0.994985423846609 
1847	 0.99021194195622 
1848	 1.01081620326844 
1849	 1.01243772897872 
1850	 1.03905637536888 
1851	 1.06678690802163 
1852	 1.13662685582771 
1853	 1.09172181296883 
1854	 1.04710616807545 
1855	 0.957937346315692 
1856	 0.823052476855714 
1857	 0.516343465466895 
1858	 0.456101441559099 
1859	 0.441940759782958 
1860	 0.461900339811186 
1861	 0.624427900248856 
1862	 0.700564155437161 
1863	 0.786658161475526 
1864	 0.896239522459395 
1865	 1.06537795139055 
1866	 1.29548280012555 
1867	 1.53125501873666 
1868	 1.78478096161839 
1869	 1.62274107039577 
1870	 1.25797463231501 
1871	 1.15254895070791 
1872	 0.90069822552802 
1873	 0.848329495607973 
1874	 0.995636871747028 
1875	 1.03413908459158 
1876	 1.01459490459392 
1877	 1.05897819701421 
1878	 1.11525619561382 
1879	 1.18653906239573 
1880	 1.23590843737058 
1881	 1.5225562077743 
1882	 1.49404790958891 
1883	 1.17742926886166 
1884	 0.986366132678622 
1885	 0.758648769568388 
1886	 0.669273384210967 
1887	 0.564078209795122 
1888	 0.546488664130408 
1889	 0.58526408929252 
1890	 0.771970205096199 
1891	 0.864985062427476 
1892	 0.968529696419823 
1893	 1.1117867285233 
1894	 1.33132850402712 
1895	 1.32667837654986 
1896	 1.26731913703861 
1897	 1.19465136284763 
1898	 0.956262624827866 
1899	 0.659101223529965 
1900	 0.667358170934967 
1901	 0.830998997696489 
1902	 1.02240228523158 
1903	 1.79332564247857 
1904	 2.27627148353542 
1905	 2.52937134261434 
1906	 2.52249555614318 
1907	 1.81649171838741 
1908	 1.69420442682322 
1909	 1.29823045771391 
1910	 1.1013968155849 
1911	 0.952672272673526 
1912	 0.798674272558451 
1913	 0.734101437670607 
1914	 0.7429381519195 
1915	 0.798667329419679 
1916	 0.940679891158995 
1917	 1.07320724034396 
1918	 1.43308100877851 
1919	 1.50437265158194 
1920	 1.7450334575977 
1921	 1.5198136113465 
1922	 1.2800527920863 
1923	 0.814598120126919 
1924	 0.685429703952109 
1925	 0.540106183996359 
1926	 0.493878404611434 
1927	 0.691517405206761 
1928	 0.714497974695861 
1929	 0.635853701787542 
1930	 0.617642122895705 
1931	 0.651989670175973 
1932	 0.783159902779254 
1933	 0.855869738316098 
1934	 0.795802770600132 
1935	 0.801017951729097 
1936	 0.71554007179381 
1937	 0.739727797817124 
1938	 0.978369424429204 
1939	 1.08794297279823 
1940	 1.23781532080909 
1941	 1.03546152271808 
1942	 1.03735115427133 
1943	 1.17855905762285 
1944	 1.11904013222412 
1945	 1.14626261030818 
1946	 1.13441674456065 
1947	 0.93881459565854 
1948	 0.967633044546467 
1949	 1.27886459098793 
1950	 1.22761646828706 
1951	 1.09804297807738 
1952	 0.962156413095538 
1953	 0.649518893491452 
1954	 0.526986158200546 
1955	 0.546292549013646 
1956	 0.452515453238654 
1957	 0.546365460641312 
1958	 0.66790133759685 
1959	 0.69570122330272 
1960	 0.779718278955151 
1961	 0.757931514005281 
1962	 0.502525377439766 
1963	 0.456511732647734 
1964	 0.422901653112403 
1965	 0.511216478052504 
1966	 0.679316888433985 
1967	 0.809737696439794 
1968	 0.898145047860792 
1969	 0.838821474739834 
1970	 0.807190842695912 
1971	 0.706801771605209 
1972	 0.679659386437112 
1973	 0.688762786549546 
1974	 0.673826030164831 
1975	 0.701566805045725 
1976	 0.627259218477827 
1977	 0.468310973580886 
1978	 0.365825458576549 
1979	 0.366267875693882 
1980	 0.382019485380464 
1981	 0.458281667772248 
1982	 0.52718708515998 
1983	 0.528397585147588 
1984	 0.435795318819464 
1985	 0.405246449237866 
1986	 0.39577167989096 
1987	 0.372927071276091 
1988	 0.347922082182928 
1989	 0.304673425021963 
1990	 0.297869909985998 
1991	 0.26406902115868 
1992	 0.277328393433636 
1993	 0.333332875133477 
1994	 0.407894990933953 
1995	 0.490114627451844 
1996	 0.533619924093324 
1997	 0.58877983651852 
1998	 0.631312365778227 
1999	 0.569092707817667 
2000	 0.566157045564048 
2001	 0.630197686682325 
2002	 0.601195012339171 
2003	 0.604067505945903 
2004	 0.652364365561937 
2005	 0.584718809279253 
2006	 0.657690923465846 
2007	 0.749718246310991 
2008	 0.801990915006578 
2009	 0.808169297214083 
2010	 0.764774649481751 
2011	 0.772227516137034 
2012	 0.812619697200131 
2013	 0.775218394249093 
2014	 0.711836963399286 
2015	 0.739485079077849 
2016	 0.877332464826557 
2017	 0.701680883467759 
2018	 0.64764019405647 
2019	 0.72003687730826 
2020	 0.555516090413384 
2021	 0.441099590057568 
2022	 0.446821778867849 
2023	 0.396295006757669 
2024	 0.385721132998841 
2025	 0.440322904261125 
2026	 0.433426719463992 
2027	 0.391736167869072 
2028	 0.384745173526414 
2029	 0.374908186818933 
2030	 0.336621947869085 
2031	 0.311638988344431 
2032	 0.287214568662831 
2033	 0.236287868737455 
2034	 0.190509632251361 
2035	 0.2019235999287 
2036	 0.204807554800259 
2037	 0.212287914416574 
2038	 0.252686220138241 
2039	 0.268860684916032 
2040	 0.27296408041513 
2041	 0.275429365658236 
2042	 0.27138323484229 
2043	 0.272092592522599 
2044	 0.264063406306327 
2045	 0.237956288163118 
2046	 0.251512530076181 
2047	 0.279020564530845 
2048	 0.290595047941999 
2049	 0.322045570975297 
2050	 0.328719872852525 
2051	 0.334232915637698 
2052	 0.361463144844473 
2053	 0.442419122331397 
2054	 0.465066808592693 
2055	 0.477830020222586 
2056	 0.464155842697334 
2057	 0.423174921913084 
2058	 0.373785237677252 
2059	 0.364235016908933 
2060	 0.358544957262143 
2061	 0.343310192503602 
2062	 0.336882071048441 
2063	 0.328740816237766 
2064	 0.340251740073126 
2065	 0.337680972896714 
2066	 0.327751074263965 
2067	 0.337262617438512 
2068	 0.35026683921402 
2069	 0.360735475570239 
2070	 0.390819102520847 
2071	 0.40596397970998 
2072	 0.392716898894495 
2073	 0.372731351283409 
2074	 0.334642364015555 
2075	 0.312024931735232 
2076	 0.283074844629019 
2077	 0.258508627856317 
2078	 0.250216685302098 
2079	 0.257888545462771 
2080	 0.280476896971971 
2081	 0.284570456454343 
2082	 0.287033668917813 
2083	 0.28066084884071 
2084	 0.263735136140225 
2085	 0.228319330544529 
2086	 0.235212099701276 
2087	 0.229932450270435 
2088	 0.259735588418203 
2089	 0.300926866744546 
2090	 0.296297446127299 
2091	 0.295673298697266 
2092	 0.28887580075573 
2093	 0.272687371576571 
2094	 0.284583143598754 
2095	 0.293676262169728 
2096	 0.271804011889647 
2097	 0.240602372020432 
2098	 0.223255738031475 
2099	 0.217449249749695 
2100	 0.219967469775586 
2101	 0.227700860323796 
2102	 0.259713557796481 
2103	 0.263526820606648 
2104	 0.260887179406249 
2105	 0.257050821132075 
2106	 0.248730395964133 
2107	 0.256007101934107 
2108	 0.257271281563484 
2109	 0.2417116705958 
2110	 0.239713554638259 
2111	 0.241619636417627 
2112	 0.240927513731776 
2113	 0.245109918517891 
2114	 0.249426369748965 
2115	 0.251551532907692 
2116	 0.251427676005965 
2117	 0.259681805805889 
2118	 0.258525498602976 
2119	 0.249529339753259 
2120	 0.23047145203856 
2121	 0.22581886892195 
2122	 0.228490505632396 
2123	 0.246048650436551 
2124	 0.266654505618963 
2125	 0.28281830906351 
2126	 0.282279983616454 
2127	 0.259608082503217 
2128	 0.259864054603702 
2129	 0.2529317356624 
2130	 0.242860954688836 
2131	 0.244749694584897 
2132	 0.22682097132492 
2133	 0.222056294625528 
2134	 0.228084915248049 
2135	 0.223186245143996 
2136	 0.215729550148749 
2137	 0.215118683797285 
2138	 0.210206701415439 
2139	 0.207878408230934 
2140	 0.221977232174193 
2141	 0.239806157531034 
2142	 0.25246146590392 
2143	 0.265747804918497 
2144	 0.26062956320449 
2145	 0.25883070796276 
2146	 0.254203764542342 
2147	 0.23716002389763 
2148	 0.258612879668725 
2149	 0.279222721035685 
2150	 0.299448685866673 
2151	 0.349815862751744 
2152	 0.362686678384852 
2153	 0.347494942491515 
2154	 0.339538878114809 
2155	 0.319657679838762 
2156	 0.291621397294673 
2157	 0.275752122703789 
2158	 0.262387463436456 
2159	 0.245248152714607 
2160	 0.225701467002528 
2161	 0.212690831632673 
2162	 0.220429868594692 
2163	 0.250526524969348 
2164	 0.294366220450209 
2165	 0.322912783229204 
2166	 0.327361229948219 
2167	 0.329268629557741 
2168	 0.316201316387784 
2169	 0.307920870124951 
2170	 0.308282112870352 
2171	 0.301263680802947 
2172	 0.288388510906484 
2173	 0.271748280428331 
2174	 0.238149265019331 
2175	 0.233495532864361 
2176	 0.244760590750242 
2177	 0.233122172788479 
2178	 0.251536856412589 
2179	 0.267860073430822 
2180	 0.245576647021554 
2181	 0.24827511118957 
2182	 0.241670589926038 
2183	 0.235689814619933 
2184	 0.23850178015531 
2185	 0.21858710917519 
2186	 0.228583036629784 
2187	 0.234985276871959 
2188	 0.247932991846572 
2189	 0.273308347985529 
2190	 0.274394599106015 
2191	 0.293124656876128 
2192	 0.302019167119417 
2193	 0.312514852875982 
2194	 0.304933083596975 
2195	 0.266717155525783 
2196	 0.25075302005428 
2197	 0.228515858725102 
2198	 0.237118859124405 
2199	 0.245718480534776 
2200	 0.276357162576336 
2201	 0.298767395999661 
2202	 0.279803264872948 
2203	 0.267378528883039 
2204	 0.242182864349159 
2205	 0.222456651231516 
2206	 0.236491197840981 
2207	 0.276524044828675 
2208	 0.296423941549024 
2209	 0.290611483835181 
2210	 0.291840194298642 
2211	 0.250706313357784 
2212	 0.236880542706726 
2213	 0.284796339048619 
2214	 0.293804089182343 
2215	 0.303159119793374 
2216	 0.338244490627944 
2217	 0.33628073905758 
2218	 0.297713353203526 
2219	 0.281428740033875 
2220	 0.24910024130946 
2221	 0.230173158192292 
2222	 0.219232998828685 
2223	 0.216780959071564 
2224	 0.228662665327038 
2225	 0.260944591456833 
2226	 0.28601098149107 
2227	 0.308746881933479 
2228	 0.318355472382985 
2229	 0.318889414173865 
2230	 0.345846948629853 
2231	 0.360194755874772 
2232	 0.340188250884202 
2233	 0.338792664256973 
2234	 0.294240192316846 
2235	 0.243311231487552 
2236	 0.239354972379743 
2237	 0.219351779245968 
2238	 0.209351092363728 
2239	 0.230382868265658 
2240	 0.247519071797676 
2241	 0.259265632355371 
2242	 0.270050517617583 
2243	 0.293487849217174 
2244	 0.293894297076306 
2245	 0.276388917307288 
2246	 0.261873189069846 
2247	 0.23493170605964 
2248	 0.219493931008716 
2249	 0.199780750619497 
2250	 0.198649750785074 
2251	 0.209319365316861 
2252	 0.228263985150934 
2253	 0.265488248199022 
2254	 0.270085942239725 
2255	 0.269242285368747 
2256	 0.258249149015165 
2257	 0.268161680366501 
2258	 0.28960028666678 
2259	 0.314005904028357 
2260	 0.366027023496156 
2261	 0.375766582288661 
2262	 0.387584757527741 
2263	 0.409324076461685 
2264	 0.381615458059039 
2265	 0.354780591444777 
2266	 0.346110392298133 
2267	 0.312397350791116 
2268	 0.298689340030334 
2269	 0.299262669290052 
2270	 0.248500569910786 
2271	 0.23067513912933 
2272	 0.23186119475093 
2273	 0.229994355376556 
2274	 0.25526914662625 
2275	 0.252384339455356 
2276	 0.219393125113015 
2277	 0.214193733097071 
2278	 0.193179040576341 
2279	 0.196696640454784 
2280	 0.25060867477947 
2281	 0.290580600025767 
2282	 0.34526517566577 
2283	 0.371260092392549 
2284	 0.385470126415245 
2285	 0.361375168247606 
2286	 0.343273712108407 
2287	 0.312572363498615 
2288	 0.275521941594109 
2289	 0.264215766144462 
2290	 0.253939981957311 
2291	 0.269228477447277 
2292	 0.32668996996205 
2293	 0.362906041906365 
2294	 0.379248411762213 
2295	 0.384276919064606 
2296	 0.368891565163961 
2297	 0.327936290731307 
2298	 0.284141284847 
2299	 0.284553342310911 
2300	 0.26970118811635 
2301	 0.288253173954774 
2302	 0.350894624746851 
2303	 0.369983281084938 
2304	 0.386203613285281 
2305	 0.375501718723038 
2306	 0.318697800500334 
2307	 0.284708282071922 
2308	 0.263920228888581 
2309	 0.229891781614627 
2310	 0.233849830875251 
2311	 0.267422563135989 
2312	 0.292632785247893 
2313	 0.341159079753128 
2314	 0.368266959959614 
2315	 0.41040011575137 
2316	 0.404149417677441 
2317	 0.343933214010599 
2318	 0.313083224704899 
2319	 0.249843878303462 
2320	 0.241908361404228 
2321	 0.276636889577915 
2322	 0.334882350638864 
2323	 0.459597275692378 
2324	 0.489968425066861 
2325	 0.507546652843485 
2326	 0.51479985229876 
2327	 0.420616315557386 
2328	 0.401437858206186 
2329	 0.435230549781373 
2330	 0.443730281547318 
2331	 0.47871423260284 
2332	 0.487173686963133 
2333	 0.520541978538196 
2334	 0.491389496791139 
2335	 0.381960466936382 
2336	 0.325774325439666 
2337	 0.271799102489333 
2338	 0.196122718678884 
2339	 0.223214731133575 
2340	 0.249098244334893 
2341	 0.253525609161859 
2342	 0.301300565925151 
2343	 0.359518343187169 
2344	 0.388739857672469 
2345	 0.34778348309805 
2346	 0.250438351387457 
2347	 0.194845804522412 
2348	 0.130102950300949 
2349	 0.178173806694911 
2350	 0.310459060943864 
2351	 0.400996939395775 
2352	 0.503748612729796 
2353	 0.490046725371414 
2354	 0.487473415205891 
2355	 0.521294155029291 
2356	 0.517941970453824 
2357	 0.634154174278839 
2358	 0.700700152998459 
2359	 0.655090761092235 
2360	 0.728751502415814 
2361	 0.69658163044709 
2362	 0.616930110633008 
2363	 0.609731309544689 
2364	 0.505648197543029 
2365	 0.473900577233351 
2366	 0.494561437252822 
2367	 0.431196536347051 
2368	 0.393533916312429 
2369	 0.35061268560123 
2370	 0.324676215902536 
2371	 0.371143247289388 
2372	 0.574019030616327 
2373	 0.620032146111002 
2374	 0.643196156295816 
2375	 0.619755958558993 
2376	 0.478265660406625 
2377	 0.366998302103251 
2378	 0.294469408930033 
2379	 0.249151621546258 
2380	 0.168228086647359 
2381	 0.175830425157085 
2382	 0.268864142558662 
2383	 0.313945878167344 
2384	 0.39418100977711 
2385	 0.474035589434854 
2386	 0.481985612001594 
2387	 0.574703158429608 
2388	 0.779353306884867 
2389	 0.884973460994747 
2390	 1.04339305473927 
2391	 1.05693273815888 
2392	 0.936955389436168 
2393	 0.910052174105079 
2394	 0.83985741192937 
2395	 0.815634889118327 
2396	 0.825535514193358 
2397	 0.798419780033871 
2398	 0.727788247804481 
2399	 0.75638610311901 
2400	 0.902341216360852 
2401	 0.963489160393507 
2402	 1.20150882386557 
2403	 1.0266237651041 
2404	 0.623562748319825 
2405	 0.520940110917971 
2406	 0.362626355314035 
2407	 0.342839368597083 
2408	 0.447676370221751 
2409	 0.507484697316068 
2410	 0.557952959512742 
2411	 0.704131919898049 
2412	 0.987601896389694 
2413	 1.13490598246576 
2414	 1.32539920824266 
2415	 1.42647990853057 
2416	 1.344270110587 
2417	 1.37745452258367 
2418	 1.56694316776316 
2419	 1.39135758368113 
2420	 0.950826974432736 
2421	 0.913370492003978 
2422	 0.944543390539234 
2423	 0.92564724655604 
2424	 1.14711862135626 
2425	 1.08999774366767 
2426	 0.697688236398457 
2427	 0.728670190760713 
2428	 1.03199136669215 
2429	 1.03736627046231 
2430	 1.09367312590078 
2431	 1.07828163742711 
2432	 0.813941065276105 
2433	 0.730942485718458 
2434	 0.799353826325952 
2435	 0.749263622421415 
2436	 0.616563642176618 
2437	 0.569610079591311 
2438	 0.5131518700998 
2439	 0.537357270191865 
2440	 0.643221545752011 
2441	 0.667210415423738 
2442	 0.741828546969983 
2443	 0.713293071786496 
2444	 0.55508632785822 
2445	 0.591343314036143 
2446	 0.702117323777102 
2447	 0.788447421569031 
2448	 1.03914569563088 
2449	 0.835662389562687 
2450	 0.616321006042796 
2451	 0.448786263951084 
2452	 0.413003494188301 
2453	 0.51459356420377 
2454	 0.643488446190827 
2455	 0.754349103157439 
2456	 0.759993351056475 
2457	 0.78595251261816 
2458	 1.00725340844975 
2459	 1.15387851322785 
2460	 1.25577705841641 
2461	 0.900114791603412 
2462	 0.877042517765686 
2463	 1.01634432080794 
2464	 1.0994402203331 
2465	 1.46652990031571 
2466	 1.52186117319041 
2467	 1.29891510959916 
2468	 1.1758049132426 
2469	 0.872521941138828 
2470	 0.798836513211913 
2471	 0.937383409417961 
2472	 0.845115501454916 
2473	 0.692634856824361 
2474	 0.522540404744846 
2475	 0.110492353649886 
2476	 6.62892196964594E-03 
2477	 0.142683002913447 
2478	 0.195923945727109 
2479	 0.276003207566018 
2480	 0.369798843441512 
2481	 0.532054312095508 
2482	 0.570809042823001 
2483	 0.560641976820605 
2484	 0.567556825376163 
2485	 0.43408492050281 
2486	 0.443061287708351 
2487	 0.593968173861861 
2488	 0.676157234960518 
2489	 0.782375196894434 
2490	 0.83637502643356 
2491	 0.860361117124135 
2492	 0.850469979064935 
2493	 0.753722429972789 
2494	 0.80734322284452 
2495	 1.00651005245401 
2496	 1.02174355766554 
2497	 1.03021385220558 
2498	 1.19975696285506 
2499	 1.22571691435651 
2500	 1.13816572279385 
