Wavelength	000011.asd
350	 1.84500802162526E-02 
351	 1.85355408747168E-02 
352	 1.75122596170787E-02 
353	 1.59181602736158E-02 
354	 1.73259398780595E-02 
355	 1.83346379588107E-02 
356	 1.80263224201531E-02 
357	 1.82436193902535E-02 
358	 0.016950765644367 
359	 1.62342176944107E-02 
360	 1.67004183811445E-02 
361	 1.59449368177762E-02 
362	 1.60384346733396E-02 
363	 1.68251629921119E-02 
364	 1.76544271518841E-02 
365	 1.80807000181356E-02 
366	 1.74216835907049E-02 
367	 1.65698579635454E-02 
368	 1.67781973212641E-02 
369	 1.79435029797675E-02 
370	 1.94265613871141E-02 
371	 2.02169855014955E-02 
372	 1.93661432210411E-02 
373	 1.79679970888292E-02 
374	 1.76507579164863E-02 
375	 1.86574081337197E-02 
376	 1.94757035534056E-02 
377	 1.88847857712792E-02 
378	 1.78528967480833E-02 
379	 1.77653853306882E-02 
380	 1.98964707428299E-02 
381	 2.07987685153291E-02 
382	 0.020819881461031 
383	 2.13285038220369E-02 
384	 2.11380657655386E-02 
385	 2.06792645246551E-02 
386	 2.01860443416588E-02 
387	 1.98414148685307E-02 
388	 2.07364703381696E-02 
389	 2.17090939746031E-02 
390	 2.22519380773359E-02 
391	 2.29450980672725E-02 
392	 2.34498928999387E-02 
393	 2.36674272114178E-02 
394	 2.38905021545831E-02 
395	 2.53407807266859E-02 
396	 2.51174467277775E-02 
397	 2.43286738849902E-02 
398	 2.47506121129251E-02 
399	 2.55204379143186E-02 
400	 2.64597518134586E-02 
401	 2.73668280511456E-02 
402	 2.80802798126464E-02 
403	 0.028880583473349 
404	 2.90700646626825E-02 
405	 2.89693306899224E-02 
406	 3.02568137217953E-02 
407	 3.07146521544499E-02 
408	 3.05187087759444E-02 
409	 3.04088407984943E-02 
410	 3.09634502545602E-02 
411	 0.032460733676097 
412	 3.36680474014702E-02 
413	 3.33543710393516E-02 
414	 3.38142018891119E-02 
415	 3.44261430799572E-02 
416	 0.034831454112424 
417	 3.50831249514882E-02 
418	 3.53905393389777E-02 
419	 3.57338464404938E-02 
420	 3.62757688994953E-02 
421	 3.76825654101452E-02 
422	 3.81521007561187E-02 
423	 3.79897458488175E-02 
424	 3.80390567576156E-02 
425	 3.83750071497776E-02 
426	 0.038774735202057 
427	 3.91274391708397E-02 
428	 3.94192530530457E-02 
429	 3.97351199283896E-02 
430	 3.98520876314104E-02 
431	 3.97688907461182E-02 
432	 3.98108455188784E-02 
433	 4.00405284830564E-02 
434	 4.06227484550247E-02 
435	 4.13949633935769E-02 
436	 4.12801187781622E-02 
437	 4.09030981813757E-02 
438	 4.08752894688625E-02 
439	 0.041541937098266 
440	 4.16660980345028E-02 
441	 4.16173233965189E-02 
442	 0.041800608794563 
443	 4.24680639882288E-02 
444	 4.28431290843634E-02 
445	 4.30000400855144E-02 
446	 4.31307506622763E-02 
447	 4.32194608613976E-02 
448	 4.33630211841966E-02 
449	 4.34976742734975E-02 
450	 4.35184155800499E-02 
451	 4.34748513232276E-02 
452	 4.37839415931267E-02 
453	 0.044345586412073 
454	 4.45261962345745E-02 
455	 4.48543982670465E-02 
456	 4.50910277497796E-02 
457	 4.50496181120193E-02 
458	 4.50094990576828E-02 
459	 4.51929183485291E-02 
460	 4.54889092781181E-02 
461	 4.56329145593483E-02 
462	 4.54625049031395E-02 
463	 4.53697587132816E-02 
464	 4.55053484263441E-02 
465	 0.045710004995784 
466	 4.56030902097391E-02 
467	 4.55935926620502E-02 
468	 4.59188170605131E-02 
469	 4.59485695760537E-02 
470	 4.60553955139927E-02 
471	 4.60718069977566E-02 
472	 4.57604549709946E-02 
473	 0.045830171518095 
474	 0.045776419755711 
475	 4.56775100024719E-02 
476	 4.62532182692636E-02 
477	 4.64863097290081E-02 
478	 4.64336923204948E-02 
479	 4.63562840720266E-02 
480	 4.64246761507085E-02 
481	 4.65253311076011E-02 
482	 4.65946540633127E-02 
483	 4.66309378409174E-02 
484	 4.69102746618697E-02 
485	 4.71954478887079E-02 
486	 4.73628808239628E-02 
487	 4.74938493465895E-02 
488	 4.76659619704701E-02 
489	 4.77808274890162E-02 
490	 4.78792174875815E-02 
491	 4.85345977501894E-02 
492	 4.89843590769753E-02 
493	 4.93510165798833E-02 
494	 5.00477769071806E-02 
495	 5.00752827103649E-02 
496	 5.04465218642897E-02 
497	 5.12583787583072E-02 
498	 5.11870557642201E-02 
499	 5.17861005493923E-02 
500	 5.29145125766903E-02 
501	 5.40009911653618E-02 
502	 5.46218762062978E-02 
503	 5.53614011432529E-02 
504	 5.63197184800702E-02 
505	 5.73205255550221E-02 
506	 5.86861512148718E-02 
507	 0.060087676990936 
508	 6.14309874823283E-02 
509	 6.31172403362664E-02 
510	 6.42633422665173E-02 
511	 6.54396047667624E-02 
512	 6.73680866840296E-02 
513	 6.96067088587519E-02 
514	 7.16067699112554E-02 
515	 7.35062668005563E-02 
516	 7.58987518629367E-02 
517	 7.78711760766087E-02 
518	 8.01507918775351E-02 
519	 8.29817193187121E-02 
520	 8.52028228053911E-02 
521	 8.77142300718744E-02 
522	 9.03598221195419E-02 
523	 9.27197697239572E-02 
524	 9.48735199268909E-02 
525	 9.71654299463796E-02 
526	 9.96141836337717E-02 
527	 0.101883071992847 
528	 0.103756938739864 
529	 0.105625096195234 
530	 0.107685437370762 
531	 0.109315240080426 
532	 0.1108534038776 
533	 0.112353845547727 
534	 0.113694257954161 
535	 0.114483411419104 
536	 0.115290036951256 
537	 0.116349738704341 
538	 0.117344692295185 
539	 0.117903957217506 
540	 0.118457029141104 
541	 0.119339394530742 
542	 0.119687468584502 
543	 0.119826262708838 
544	 0.120053096582874 
545	 0.120596356340754 
546	 0.121357609928634 
547	 0.121874280054481 
548	 0.122041883666646 
549	 0.122508941697834 
550	 0.12288716069111 
551	 0.123060398847699 
552	 0.123046435481303 
553	 0.123086654383282 
554	 0.122987024387093 
555	 0.122761622240516 
556	 0.122629423209044 
557	 0.122427858482101 
558	 0.121707810373597 
559	 0.120457709306464 
560	 0.119981975805707 
561	 0.119178170428826 
562	 0.118053812888706 
563	 0.117074268102534 
564	 0.115923514499176 
565	 0.114633787969759 
566	 0.113198019577022 
567	 0.111494243400863 
568	 0.110001508065337 
569	 0.108573088897735 
570	 0.106968969934768 
571	 0.105343231659297 
572	 0.103771621757515 
573	 0.102347521705762 
574	 0.101152260916594 
575	 0.100007246341489 
576	 9.88419540506703E-02 
577	 9.76984667983164E-02 
578	 9.68323631909566E-02 
579	 9.56887483604504E-02 
580	 9.46166018648271E-02 
581	 9.40983541386861E-02 
582	 9.31744538643631E-02 
583	 9.22682977077384E-02 
584	 0.09162981648505 
585	 9.12080965398253E-02 
586	 9.07610354156046E-02 
587	 9.00417183854194E-02 
588	 0.089046311199382 
589	 8.88257024669141E-02 
590	 8.83788960444334E-02 
591	 8.77997177834548E-02 
592	 8.77573870111797E-02 
593	 8.74906836252305E-02 
594	 8.71159902991318E-02 
595	 0.086728872731377 
596	 8.61867565403653E-02 
597	 8.61265448810698E-02 
598	 8.61022613032324E-02 
599	 8.56036676333243E-02 
600	 8.53961081606668E-02 
601	 8.53999149806249E-02 
602	 8.52799780265728E-02 
603	 8.45703888909432E-02 
604	 8.42486647735894E-02 
605	 0.083985276610752 
606	 0.083463943606166 
607	 8.30558255571387E-02 
608	 8.25300653832887E-02 
609	 8.18879102168825E-02 
610	 8.12466334568373E-02 
611	 8.06507292342628E-02 
612	 7.99406895217559E-02 
613	 7.90940853539275E-02 
614	 7.83123047097021E-02 
615	 7.79506793513959E-02 
616	 7.74694361526101E-02 
617	 7.64666592239585E-02 
618	 7.60379922281196E-02 
619	 7.57582506774449E-02 
620	 7.54775000170526E-02 
621	 7.52557373763139E-02 
622	 7.48225285049173E-02 
623	 7.44908617375843E-02 
624	 7.44013015390922E-02 
625	 7.40790938681762E-02 
626	 7.39771957139004E-02 
627	 7.39790100848349E-02 
628	 7.38009017064192E-02 
629	 7.36659402354083E-02 
630	 7.34901558317892E-02 
631	 7.32785206215787E-02 
632	 0.073161756133959 
633	 7.33250752015623E-02 
634	 7.31979359512284E-02 
635	 0.072481483156599 
636	 7.22042631674774E-02 
637	 7.17604126271435E-02 
638	 7.11090805395461E-02 
639	 7.04922593761232E-02 
640	 6.97752159344001E-02 
641	 6.89518036660523E-02 
642	 6.80644267415647E-02 
643	 6.71671186964612E-02 
644	 6.66052052837036E-02 
645	 0.066060221435484 
646	 6.51608136681434E-02 
647	 0.064480360449631 
648	 0.063832832256009 
649	 6.33609960665064E-02 
650	 6.33860212731286E-02 
651	 6.27731916810098E-02 
652	 6.22529708977346E-02 
653	 6.22856557193479E-02 
654	 0.061902620001123 
655	 6.18356640203979E-02 
656	 6.14597495104253E-02 
657	 0.059986357599514 
658	 5.92649441460186E-02 
659	 5.90388411740722E-02 
660	 5.89087795508799E-02 
661	 5.85226694592525E-02 
662	 5.79426179910437E-02 
663	 5.74051257804202E-02 
664	 5.70100959591473E-02 
665	 5.62137596343493E-02 
666	 5.56878680125551E-02 
667	 5.53693000364908E-02 
668	 5.48558919250182E-02 
669	 5.48484758321368E-02 
670	 0.054922831565011 
671	 0.054703663850714 
672	 0.054069420385812 
673	 0.054198288475401 
674	 0.054586574437943 
675	 5.44962264336547E-02 
676	 5.46085767369032E-02 
677	 5.45926501358967E-02 
678	 5.44577965244965E-02 
679	 5.45390181807648E-02 
680	 5.55279249669583E-02 
681	 5.63699726993241E-02 
682	 5.65350229310777E-02 
683	 5.71693551868007E-02 
684	 5.81680883619085E-02 
685	 5.93755131001292E-02 
686	 6.08046990211686E-02 
687	 0.062884888405366 
688	 6.54627368756036E-02 
689	 0.068011385567087 
690	 7.05307972304749E-02 
691	 7.37678350480385E-02 
692	 7.76816734304281E-02 
693	 8.22345223965975E-02 
694	 0.087074245306071 
695	 9.19555325517054E-02 
696	 9.70485978581443E-02 
697	 0.103028485098518 
698	 0.109326284300102 
699	 0.116464432263718 
700	 0.124065212728317 
701	 0.130984467503874 
702	 0.138451483157954 
703	 0.146099149217302 
704	 0.153594275882523 
705	 0.160936796191609 
706	 0.168963192647626 
707	 0.177131834394539 
708	 0.184684359033368 
709	 0.193297159410819 
710	 0.201850947505154 
711	 0.209946633995025 
712	 0.218639447958747 
713	 0.227866504286237 
714	 0.236992939600158 
715	 0.245606780029025 
716	 0.254502210928752 
717	 0.264330894165044 
718	 0.275180929474396 
719	 0.286289929122252 
720	 0.297532149519309 
721	 0.306874195373739 
722	 0.315121315734769 
723	 0.324315646936066 
724	 0.334147166065796 
725	 0.344616104125279 
726	 0.355267993318063 
727	 0.363502961767028 
728	 0.372065008521335 
729	 0.381501069497977 
730	 0.390672675897913 
731	 0.399034431562374 
732	 0.40717322380028 
733	 0.415075783064021 
734	 0.422177147441413 
735	 0.428791826848945 
736	 0.435372717098056 
737	 0.441902867652695 
738	 0.447961225682052 
739	 0.454147357679242 
740	 0.460131493483534 
741	 0.465150851871671 
742	 0.469847495537581 
743	 0.474058701853529 
744	 0.477964592033977 
745	 0.482288144776396 
746	 0.485847600968042 
747	 0.488912706424975 
748	 0.491970852533224 
749	 0.494700707392688 
750	 0.49758870652438 
751	 0.50032772498196 
752	 0.502288011135167 
753	 0.504350952433042 
754	 0.506315557882816 
755	 0.508132826481472 
756	 0.510107553296937 
757	 0.511843649291321 
758	 0.513658037915739 
759	 0.515922342307402 
760	 0.515094466472358 
761	 0.513972051955804 
762	 0.514045394446251 
763	 0.513507240393564 
764	 0.513524575648536 
765	 0.514778859391178 
766	 0.516895265158524 
767	 0.519272134012813 
768	 0.520717915914581 
769	 0.521519341904064 
770	 0.522071039333606 
771	 0.5227226952389 
772	 0.52331038770911 
773	 0.523972805367985 
774	 0.524800630914989 
775	 0.52507717900937 
776	 0.525271708145656 
777	 0.525775495596753 
778	 0.526732820540053 
779	 0.526761525466511 
780	 0.526882124363831 
781	 0.527617257825298 
782	 0.527916046143498 
783	 0.528174025341558 
784	 0.528248727630753 
785	 0.528099637936782 
786	 0.528656042754186 
787	 0.528970464207746 
788	 0.528795135116881 
789	 0.528460054560565 
790	 0.528589411704038 
791	 0.528795548532006 
792	 0.529159632211804 
793	 0.530398152632115 
794	 0.531023970973373 
795	 0.531316322895237 
796	 0.531587270157016 
797	 0.531178992584006 
798	 0.53134513907334 
799	 0.531672495849097 
800	 0.531416159826942 
801	 0.531466235374107 
802	 0.53223730138712 
803	 0.533046774725379 
804	 0.532739844699529 
805	 0.533446565301765 
806	 0.53440741025685 
807	 0.534898400705869 
808	 0.534687688916765 
809	 0.534480386779418 
810	 0.53437770120487 
811	 0.534274905410153 
812	 0.533939744561276 
813	 0.533567971819803 
814	 0.533024695500913 
815	 0.532117338855503 
816	 0.53131693876842 
817	 0.530975511260517 
818	 0.531456444843849 
819	 0.532919754155421 
820	 0.534986711151351 
821	 0.535769105324615 
822	 0.534954373081756 
823	 0.534481711051247 
824	 0.535030647118895 
825	 0.536225018352966 
826	 0.537241138224815 
827	 0.536748145566977 
828	 0.536586758892073 
829	 0.536774987445407 
830	 0.536944851938714 
831	 0.538226550317086 
832	 0.538681173261212 
833	 0.538552664409114 
834	 0.539201729411276 
835	 0.540228948078935 
836	 0.541208363485003 
837	 0.541889762657727 
838	 0.542238215222271 
839	 0.542897496280545 
840	 0.543105727790399 
841	 0.542901287420506 
842	 0.543930964575417 
843	 0.545027525691801 
844	 0.546072770800507 
845	 0.546917518919836 
846	 0.546452937300883 
847	 0.546492986030791 
848	 0.546930370833837 
849	 0.547050304287403 
850	 0.547361844213461 
851	 0.54741262455339 
852	 0.547575722928455 
853	 0.548507118473213 
854	 0.548493086738858 
855	 0.548617803298667 
856	 0.549123484844656 
857	 0.549218348001362 
858	 0.549332629431928 
859	 0.549361833715441 
860	 0.549524227836034 
861	 0.550584381771579 
862	 0.551265207815806 
863	 0.551524437753038 
864	 0.551478695320041 
865	 0.550733538242531 
866	 0.551388828015953 
867	 0.552688391890723 
868	 0.553139289020187 
869	 0.552438385409105 
870	 0.552977202785637 
871	 0.553884774490538 
872	 0.553285228870414 
873	 0.552290298740269 
874	 0.552641751393918 
875	 0.553519341587764 
876	 0.55285839556684 
877	 0.55333131591662 
878	 0.553640980837716 
879	 0.553669522116933 
880	 0.554554118525711 
881	 0.554729321926146 
882	 0.554539757590165 
883	 0.554672424287755 
884	 0.555736523017924 
885	 0.55591005437567 
886	 0.555411311202501 
887	 0.555093452150886 
888	 0.556071773826032 
889	 0.556867650597295 
890	 0.556996066827714 
891	 0.55647198914228 
892	 0.555844898256202 
893	 0.555176819711478 
894	 0.554011852552499 
895	 0.552360750216997 
896	 0.553264715454224 
897	 0.551506734429249 
898	 0.549115451287606 
899	 0.550210986866086 
900	 0.550829796936779 
901	 0.550461073928791 
902	 0.550312224891649 
903	 0.551794574547957 
904	 0.554092697738155 
905	 0.55569636429152 
906	 0.555977483895836 
907	 0.554783746850292 
908	 0.551001266836897 
909	 0.550115519286483 
910	 0.552090018377768 
911	 0.552069774772917 
912	 0.550869155588904 
913	 0.551143928646859 
914	 0.551213040443259 
915	 0.547145803237303 
916	 0.54624814508296 
917	 0.548483500326407 
918	 0.551328318956754 
919	 0.551819134276014 
920	 0.553246609418038 
921	 0.554178730175779 
922	 0.553430183113247 
923	 0.550995212717391 
924	 0.554321572990806 
925	 0.555147989145234 
926	 0.550652227470889 
927	 0.549801848042336 
928	 0.548882724121765 
929	 0.54712708461318 
930	 0.543273512604863 
931	 0.535477920649679 
932	 0.539318131129539 
933	 0.53824245822682 
934	 0.522963817054039 
935	 0.522393497661186 
936	 0.503976132805945 
937	 0.51103740358425 
938	 0.536667088872658 
939	 0.519392382086306 
940	 0.516970218873167 
941	 0.521698623379361 
942	 0.522540311383127 
943	 0.515343354533709 
944	 0.520973447016469 
945	 0.536421091645846 
946	 0.544507299158419 
947	 0.524576916317569 
948	 0.517411251507396 
949	 0.516644319308051 
950	 0.514321851486997 
951	 0.510990451455573 
952	 0.5213562512757 
953	 0.530502886829022 
954	 0.530004124866821 
955	 0.523893896795276 
956	 0.514474769960004 
957	 0.521406152625499 
958	 0.535320901501388 
959	 0.529300059131043 
960	 0.533804809358791 
961	 0.538954074318779 
962	 0.538694803378306 
963	 0.534505186949564 
964	 0.532575814343851 
965	 0.529747107777998 
966	 0.530250235921634 
967	 0.538752425780224 
968	 0.537523190188186 
969	 0.539810750601217 
970	 0.543046050614689 
971	 0.538947394811789 
972	 0.540960473251983 
973	 0.541869391731962 
974	 0.540522141010836 
975	 0.53890958078778 
976	 0.533944287241668 
977	 0.534577501642089 
978	 0.539717232094959 
979	 0.543747334925603 
980	 0.543554826911961 
981	 0.542436334332445 
982	 0.543240000417309 
983	 0.546371041834991 
984	 0.547448144503397 
985	 0.550778947456629 
986	 0.55373191852857 
987	 0.553471333576165 
988	 0.550165463546809 
989	 0.554080087593264 
990	 0.554901811722959 
991	 0.550251973233071 
992	 0.554272347039043 
993	 0.555962360909097 
994	 0.557850879761808 
995	 0.560558797474432 
996	 0.560636868062632 
997	 0.558730944946736 
998	 0.558433177360346 
999	 0.559027126009525 
1000	 0.557093508119843 
1001	 0.548975904964816 
1002	 0.547517008500381 
1003	 0.546747473571542 
1004	 0.546579453220282 
1005	 0.547732494220081 
1006	 0.548924522197328 
1007	 0.550875707521445 
1008	 0.552278385788386 
1009	 0.554607577830303 
1010	 0.55394251058585 
1011	 0.554624853370896 
1012	 0.556463523063408 
1013	 0.55653575312787 
1014	 0.55731538678744 
1015	 0.558791736754121 
1016	 0.557319305572536 
1017	 0.556381710011771 
1018	 0.55470517694235 
1019	 0.554488697515752 
1020	 0.554059620720221 
1021	 0.554579387653967 
1022	 0.556905625177124 
1023	 0.559027235095385 
1024	 0.561975971056101 
1025	 0.562518407978405 
1026	 0.565469428225516 
1027	 0.569086171316028 
1028	 0.568434392787493 
1029	 0.566587308722917 
1030	 0.567611454603334 
1031	 0.564403479879107 
1032	 0.5631791803898 
1033	 0.565278194489115 
1034	 0.566599413184191 
1035	 0.567353259264748 
1036	 0.56763483363388 
1037	 0.568486992114406 
1038	 0.566614312264983 
1039	 0.569887156883166 
1040	 0.568534976366052 
1041	 0.566633780000693 
1042	 0.567455535354502 
1043	 0.560656683811873 
1044	 0.556520167667493 
1045	 0.557298633028031 
1046	 0.558058323225931 
1047	 0.560055782738138 
1048	 0.561913957893497 
1049	 0.564218228347695 
1050	 0.566964243593328 
1051	 0.568235809414327 
1052	 0.56968290605453 
1053	 0.571165672444633 
1054	 0.568364929367653 
1055	 0.565280066565526 
1056	 0.563784946360254 
1057	 0.564560880437259 
1058	 0.569447507547464 
1059	 0.571865392745261 
1060	 0.572272284258304 
1061	 0.573968262893529 
1062	 0.572924809827469 
1063	 0.572108186794639 
1064	 0.571975509675361 
1065	 0.574011381027504 
1066	 0.571815921806499 
1067	 0.568929395094675 
1068	 0.569198991959381 
1069	 0.568306176691279 
1070	 0.567561581306385 
1071	 0.569781775543121 
1072	 0.570704724703762 
1073	 0.5719260121062 
1074	 0.575737234223256 
1075	 0.575199116572066 
1076	 0.57372531016345 
1077	 0.572742204268745 
1078	 0.569390459943873 
1079	 0.56916551664971 
1080	 0.571587766518657 
1081	 0.572910658490997 
1082	 0.573241723195932 
1083	 0.575731658943477 
1084	 0.574347712970004 
1085	 0.57379173367836 
1086	 0.574573811977147 
1087	 0.573982642737144 
1088	 0.573661530967468 
1089	 0.572205955407339 
1090	 0.568799838836813 
1091	 0.565591715402838 
1092	 0.565766147716977 
1093	 0.56742136736821 
1094	 0.568582001195119 
1095	 0.568906939192627 
1096	 0.569507797791988 
1097	 0.567124910047944 
1098	 0.563443869580284 
1099	 0.562792044782282 
1100	 0.562956720543823 
1101	 0.561057217364806 
1102	 0.563423331959139 
1103	 0.565139604829604 
1104	 0.56237398602407 
1105	 0.562459954212181 
1106	 0.560271177763512 
1107	 0.555619974698015 
1108	 0.555233954524906 
1109	 0.554298434094271 
1110	 0.551544816797354 
1111	 0.54536652304676 
1112	 0.542579447680813 
1113	 0.541039939267082 
1114	 0.534696826742487 
1115	 0.532744987293299 
1116	 0.532980544774652 
1117	 0.530554542305453 
1118	 0.532585131832485 
1119	 0.530821972518641 
1120	 0.501504265072432 
1121	 0.48871399905866 
1122	 0.490143058148178 
1123	 0.421734122025831 
1124	 0.383311987315831 
1125	 0.38700028998978 
1126	 0.374429634042898 
1127	 0.36467888970784 
1128	 0.433397021485277 
1129	 0.444731758334814 
1130	 0.413773496261845 
1131	 0.374732570586047 
1132	 0.365632817512914 
1133	 0.389153179381514 
1134	 0.41303405453558 
1135	 0.446000199442147 
1136	 0.500906051288115 
1137	 0.534738240850485 
1138	 0.55039927679984 
1139	 0.552216139178772 
1140	 0.531766388039847 
1141	 0.507081287682025 
1142	 0.492133274021178 
1143	 0.47698532009281 
1144	 0.45876261067635 
1145	 0.439244937644455 
1146	 0.433851298985576 
1147	 0.42731348008016 
1148	 0.426798835229625 
1149	 0.456030220125404 
1150	 0.487572473997974 
1151	 0.478400444762963 
1152	 0.466405436476044 
1153	 0.476225302220791 
1154	 0.477870806071992 
1155	 0.499974668566068 
1156	 0.53417347100529 
1157	 0.542262505032949 
1158	 0.541742203677402 
1159	 0.538673221351031 
1160	 0.526617736335721 
1161	 0.521028635379813 
1162	 0.513410331483609 
1163	 0.513619733532519 
1164	 0.518032554828837 
1165	 0.52045730914322 
1166	 0.523329326783672 
1167	 0.52625643718608 
1168	 0.520456698480321 
1169	 0.516063127073994 
1170	 0.51768183629873 
1171	 0.519045442680831 
1172	 0.522258486056004 
1173	 0.526908140778148 
1174	 0.52683289259823 
1175	 0.52738610094877 
1176	 0.527223853929218 
1177	 0.526054318103779 
1178	 0.525313322077264 
1179	 0.523752814183915 
1180	 0.522071503455373 
1181	 0.51925272650081 
1182	 0.518863433235383 
1183	 0.519049057263304 
1184	 0.521934608317222 
1185	 0.525105940838795 
1186	 0.528275200512912 
1187	 0.52887300750142 
1188	 0.527751344956756 
1189	 0.525963317762393 
1190	 0.524390869800118 
1191	 0.524339979056812 
1192	 0.526677703530075 
1193	 0.527095808046454 
1194	 0.526830629620597 
1195	 0.527417869832825 
1196	 0.528172404525519 
1197	 0.527957671010597 
1198	 0.528875437165919 
1199	 0.528436751812312 
1200	 0.524227324922324 
1201	 0.523612582976787 
1202	 0.523199368235797 
1203	 0.527447726937456 
1204	 0.528853598252776 
1205	 0.530774011674219 
1206	 0.533308625156566 
1207	 0.53059509159355 
1208	 0.529401698742353 
1209	 0.529050511975301 
1210	 0.527747921655227 
1211	 0.523898134118488 
1212	 0.522980093290102 
1213	 0.52417451093843 
1214	 0.524087097598027 
1215	 0.524276638772892 
1216	 0.524496154304228 
1217	 0.523330004633743 
1218	 0.523584409315737 
1219	 0.524183372702079 
1220	 0.526340294339303 
1221	 0.52981866532978 
1222	 0.534355576930884 
1223	 0.538359398126368 
1224	 0.54060102655832 
1225	 0.540877142882366 
1226	 0.540367829906181 
1227	 0.541116227807195 
1228	 0.542057467888245 
1229	 0.542440324439124 
1230	 0.54317710980926 
1231	 0.544085393263844 
1232	 0.544332466205979 
1233	 0.544513862426917 
1234	 0.54563112518414 
1235	 0.545832765087096 
1236	 0.544291646889106 
1237	 0.544550658533593 
1238	 0.545269897926304 
1239	 0.546647402937033 
1240	 0.550609099621 
1241	 0.5519920934052 
1242	 0.552151361816822 
1243	 0.553178519318317 
1244	 0.551134611575673 
1245	 0.548485891018449 
1246	 0.550217855758498 
1247	 0.550045617175324 
1248	 0.550718256501874 
1249	 0.553333452224389 
1250	 0.553924451020279 
1251	 0.553168408513339 
1252	 0.553077698981643 
1253	 0.552195451649016 
1254	 0.552986651925817 
1255	 0.555329243661941 
1256	 0.556120963586288 
1257	 0.557955683440422 
1258	 0.557920430427557 
1259	 0.553887253685316 
1260	 0.553080208538337 
1261	 0.553760225402828 
1262	 0.553891741903393 
1263	 0.554898522565354 
1264	 0.55776562153469 
1265	 0.55907688505096 
1266	 0.557900880165094 
1267	 0.554436485792727 
1268	 0.55163938018638 
1269	 0.551348448263917 
1270	 0.551162700500727 
1271	 0.551688179617229 
1272	 0.556466098002222 
1273	 0.556714765120726 
1274	 0.553686656924586 
1275	 0.552974690755147 
1276	 0.551916916465433 
1277	 0.551593340955717 
1278	 0.552088381863708 
1279	 0.552357906273802 
1280	 0.552485826027088 
1281	 0.553199587860702 
1282	 0.554860308526877 
1283	 0.556167410731413 
1284	 0.558016499826215 
1285	 0.559260529548527 
1286	 0.55869065263837 
1287	 0.559160964114586 
1288	 0.558704794057274 
1289	 0.557629039745171 
1290	 0.556273390802683 
1291	 0.554046907194901 
1292	 0.552863632531205 
1293	 0.551210438832881 
1294	 0.550919129130682 
1295	 0.553077653954565 
1296	 0.552879228609333 
1297	 0.551937580320757 
1298	 0.551000961936468 
1299	 0.548443519515834 
1300	 0.54688361612867 
1301	 0.545978687505883 
1302	 0.544970291096051 
1303	 0.544952609025326 
1304	 0.543471262329196 
1305	 0.540399103786831 
1306	 0.538798603665444 
1307	 0.537563499858487 
1308	 0.534638342593816 
1309	 0.534749732564689 
1310	 0.534226373618587 
1311	 0.534159539357524 
1312	 0.536201844307098 
1313	 0.53761524431014 
1314	 0.542717074265341 
1315	 0.54133577093686 
1316	 0.53519875905914 
1317	 0.531465788323939 
1318	 0.523970711907336 
1319	 0.520046315807665 
1320	 0.519846630763792 
1321	 0.518144214385504 
1322	 0.517595317186891 
1323	 0.51387626422068 
1324	 0.506681965020206 
1325	 0.502743184641026 
1326	 0.496500740503389 
1327	 0.492660370390094 
1328	 0.492785251065808 
1329	 0.493929742283977 
1330	 0.500993513455757 
1331	 0.504144119650541 
1332	 0.508129704230993 
1333	 0.511530854131113 
1334	 0.512228881436945 
1335	 0.493628075500452 
1336	 0.488447002725073 
1337	 0.483124882238548 
1338	 0.48559138716293 
1339	 0.499364016217991 
1340	 0.50465534542428 
1341	 0.515684210888956 
1342	 0.516466362057183 
1343	 0.507855589024782 
1344	 0.488173522641133 
1345	 0.431002699255861 
1346	 0.392294120372175 
1347	 0.324635655387465 
1348	 0.275948990057995 
1349	 0.355857533216829 
1350	 0.358990032797367 
1351	 0.319374154299907 
1352	 0.266460077331852 
1353	-1.20638999020144E-02 
1354	-0.265164240110627 
1355	 3.67964778695277E-03 
1356	-8.05573103948022E-02 
1357	-0.398560620764377 
1358	-0.611177834227087 
1359	-3.43105934081586 
1360	 1.58121479755428 
1361	 0.513903864319928 
1362	-0.791854231027365 
1363	-2.00245976755177 
1364	 2.75437404346384 
1365	 1.82143916497814 
1366	-0.360680527420409 
1367	-2.63192646990303 
1368	 4.21882743825106 
1369	 2.45434647888524 
1370	 0.253136673710442 
1371	-6.78459912430997E-02 
1372	-0.111388150011243 
1373	 0.081285575428725 
1374	 1.00640114614791 
1375	 1.53934451829976 
1376	 1.50266824060134 
1377	 6.49602270727809 
1378	-1.82366200834636 
1379	-1.73750649239492 
1380	-3.44606055352048 
1381	-4.85159208696497 
1382	 0.865720879107016 
1383	-8.38729083408341E-02 
1384	-0.199872906739962 
1385	-0.473565269766143 
1386	-0.494981662176437 
1387	-0.512214073047726 
1388	-0.562753847477414 
1389	-1.6991786389448 
1390	-1.53864418403576 
1391	 8.87961663863094E-02 
1392	 0.389024440165786 
1393	 0.568527965761423 
1394	-5.49309924113217 
1395	-0.260987424224114 
1396	-0.33186087455569 
1397	-1.14417629697356 
1398	-2.17163655356838 
1399	 0.699754411855561 
1400	 0.768701285450408 
1401	 3.15159816857433 
1402	 12.8703049113089 
1403	-3.99998713411987 
1404	-3.93149469409599 
1405	-18.4155308962675 
1406	 15.2928231090369 
1407	 2.08007049884316 
1408	 1.99467937995514 
1409	 9.25783071587717 
1410	 32.0150964331238 
1411	-5.69871670952045 
1412	-3.75541048026227 
1413	-9.75783394184846 
1414	-13.5453650692228 
1415	-4.70592521585505 
1416	-4.5958511619715 
1417	-7.08540747661326 
1418	-6.26537137470998 
1419	-6.7931227053561 
1420	-2.41428340549433 
1421	 2.28804051351718 
1422	-0.251045467506037 
1423	 0.839989423667836 
1424	 3.51309303456812 
1425	 4.52273579617981 
1426	-6.57326772999068 
1427	-11.8986334590185 
1428	 0.213215009134217 
1429	-0.199238659428319 
1430	-0.179852780196877 
1431	-0.205547895197612 
1432	 0.236418300743525 
1433	 0.533852651188562 
1434	-0.35156766982145 
1435	-0.465667068597579 
1436	 2.53703516105117 
1437	 2.18565397174242 
1438	 0.777093942209406 
1439	 1.45250846041764 
1440	-1.1826127618762 
1441	-0.76652494700711 
1442	-0.622855696522718 
1443	-0.61948604238444 
1444	-0.846474196861912 
1445	-0.944924570001967 
1446	-1.31804419283112 
1447	-1.23524127342685 
1448	-0.694853070974052 
1449	-0.585153813281504 
1450	-0.568042807462492 
1451	-0.455546977927814 
1452	-0.299754809186897 
1453	-0.194778708117065 
1454	-0.1099118507997 
1455	-2.74116679050201E-02 
1456	 2.27493921064177E-02 
1457	 3.75159061868123E-02 
1458	 6.51312299365515E-02 
1459	 0.130312584432776 
1460	 0.139301972915571 
1461	 0.127533560990092 
1462	 7.96000175312037E-02 
1463	-9.62942851423688E-03 
1464	-7.11223309987702E-02 
1465	-0.225309281677121 
1466	-0.27521631170588 
1467	-0.192485270210176 
1468	-0.240359725846293 
1469	-0.340376421671479 
1470	-0.337335080626999 
1471	-0.378099069917365 
1472	-0.320593932538563 
1473	-0.117594315038836 
1474	-5.23914592737607E-02 
1475	-0.010921023371713 
1476	 4.92240944231548E-03 
1477	-0.044643049120312 
1478	-2.77106032885496E-02 
1479	-6.89003028677504E-03 
1480	 4.30717937073006E-02 
1481	 0.167587032078456 
1482	 0.178514717968901 
1483	 0.123984760804519 
1484	 0.135761269973407 
1485	 0.134676713898591 
1486	 0.141076483624065 
1487	 0.178766531900731 
1488	 0.195413086506408 
1489	 0.186086454150428 
1490	 0.196630646474091 
1491	 0.222060370543125 
1492	 0.232604965514329 
1493	 0.245803528834058 
1494	 0.248616703026388 
1495	 0.240003771267861 
1496	 0.236719895929766 
1497	 0.232655581667207 
1498	 0.229627116384351 
1499	 0.226460478807957 
1500	 0.227286123411522 
1501	 0.227229336727056 
1502	 0.227256292819588 
1503	 0.223310652837276 
1504	 0.224756525238617 
1505	 0.222621292107813 
1506	 0.215936196817358 
1507	 0.218399547408105 
1508	 0.224445820630622 
1509	 0.228628392054331 
1510	 0.235525179830846 
1511	 0.241906090104904 
1512	 0.249032297559968 
1513	 0.25055381996097 
1514	 0.250984268695611 
1515	 0.253060529250143 
1516	 0.251571869054124 
1517	 0.251607765231812 
1518	 0.255580980250374 
1519	 0.255426869722845 
1520	 0.250800773746302 
1521	 0.250484683606743 
1522	 0.250683369635231 
1523	 0.252883850935672 
1524	 0.256732765199379 
1525	 0.261039993459747 
1526	 0.268104679187449 
1527	 0.272865268164137 
1528	 0.278992138296878 
1529	 0.280538857345608 
1530	 0.278494873431422 
1531	 0.276868455771287 
1532	 0.271660654008888 
1533	 0.270501494690543 
1534	 0.27111677367561 
1535	 0.272489053923983 
1536	 0.274936897010672 
1537	 0.277797187402824 
1538	 0.282640705182151 
1539	 0.285597555362992 
1540	 0.289282779880482 
1541	 0.291514373065727 
1542	 0.293028445035399 
1543	 0.291851476403519 
1544	 0.284243336444552 
1545	 0.28495152440525 
1546	 0.287959767339925 
1547	 0.291667600731648 
1548	 0.304610743093631 
1549	 0.310397426604243 
1550	 0.311696203554208 
1551	 0.31309859200418 
1552	 0.313093039635518 
1553	 0.311345763463375 
1554	 0.305715368152519 
1555	 0.303442464553535 
1556	 0.299193407657375 
1557	 0.299130416469141 
1558	 0.305961891590356 
1559	 0.3096724140412 
1560	 0.315391202955501 
1561	 0.318068946692237 
1562	 0.316859734384317 
1563	 0.31624234233663 
1564	 0.316686916545258 
1565	 0.316271507703836 
1566	 0.323182127523555 
1567	 0.329352169992544 
1568	 0.333755310538648 
1569	 0.338634401328413 
1570	 0.338561304012189 
1571	 0.338074133023814 
1572	 0.334226677964854 
1573	 0.332384655547429 
1574	 0.334245820089125 
1575	 0.332060794108496 
1576	 0.334214319478431 
1577	 0.338923910732199 
1578	 0.333703601522374 
1579	 0.328210607132646 
1580	 0.3264211024622 
1581	 0.320581680333021 
1582	 0.321853018013348 
1583	 0.331113252433185 
1584	 0.339252165705555 
1585	 0.346534086123278 
1586	 0.350647530814215 
1587	 0.352451800519721 
1588	 0.355968667886359 
1589	 0.35771683839508 
1590	 0.36140411903267 
1591	 0.369742902591537 
1592	 0.370277043380057 
1593	 0.367215100782122 
1594	 0.363977443525146 
1595	 0.355117014311756 
1596	 0.353599877285482 
1597	 0.354779035195371 
1598	 0.354309289377849 
1599	 0.356303437425468 
1600	 0.357340399883787 
1601	 0.35693915358139 
1602	 0.35889778690796 
1603	 0.363711988369742 
1604	 0.366201038640374 
1605	 0.367344485334025 
1606	 0.369634603429433 
1607	 0.372767989273455 
1608	 0.37144479802721 
1609	 0.368496204160712 
1610	 0.366406702255148 
1611	 0.360145345672737 
1612	 0.361437474189303 
1613	 0.367503506509313 
1614	 0.371043654773587 
1615	 0.377648452174427 
1616	 0.379557371568681 
1617	 0.378562154254789 
1618	 0.379209018083866 
1619	 0.378793211159274 
1620	 0.378713932437522 
1621	 0.379571130727929 
1622	 0.379249586566554 
1623	 0.376610910397339 
1624	 0.376440087123271 
1625	 0.377161184104261 
1626	 0.378047526132189 
1627	 0.381970235716171 
1628	 0.382699731447857 
1629	 0.380523167687212 
1630	 0.382434538746466 
1631	 0.384661502986822 
1632	 0.386484576831672 
1633	 0.391855359775166 
1634	 0.393326099912491 
1635	 0.390490704267944 
1636	 0.391170401731289 
1637	 0.393919890716751 
1638	 0.393576810306131 
1639	 0.392676766695527 
1640	 0.39275743325914 
1641	 0.392189732313752 
1642	 0.391384148900229 
1643	 0.389636105690243 
1644	 0.391788088314195 
1645	 0.393818758772192 
1646	 0.395736173031145 
1647	 0.403970970198892 
1648	 0.404298438075807 
1649	 0.398493184841368 
1650	 0.396388488581498 
1651	 0.392475866867124 
1652	 0.39333670634239 
1653	 0.398455962408769 
1654	 0.401378008962387 
1655	 0.404937276166128 
1656	 0.405490784998722 
1657	 0.403881173603258 
1658	 0.40275582156388 
1659	 0.401568673014082 
1660	 0.400231641187739 
1661	 0.397439210864921 
1662	 0.39619869924811 
1663	 0.396281526583353 
1664	 0.396224723286465 
1665	 0.397950571594194 
1666	 0.397691156244652 
1667	 0.395233927092073 
1668	 0.397396219256955 
1669	 0.399754575220911 
1670	 0.398876900402255 
1671	 0.403849094495424 
1672	 0.40399402052659 
1673	 0.402732203209256 
1674	 0.408716670595439 
1675	 0.403933183295118 
1676	 0.397786464395408 
1677	 0.396065084312802 
1678	 0.389946262849259 
1679	 0.391897821478029 
1680	 0.396445426822472 
1681	 0.39753681278211 
1682	 0.403750210475571 
1683	 0.404309163311269 
1684	 0.403004850379381 
1685	 0.406305905613355 
1686	 0.405793101917599 
1687	 0.409009656597635 
1688	 0.413856537757159 
1689	 0.411466666928344 
1690	 0.406496383029569 
1691	 0.397962335079548 
1692	 0.387864009045796 
1693	 0.382334469825505 
1694	 0.380608095957271 
1695	 0.378169629965391 
1696	 0.375411372831965 
1697	 0.37308503867012 
1698	 0.368103534555734 
1699	 0.366132807200126 
1700	 0.367705477985827 
1701	 0.369748776036371 
1702	 0.372136624243201 
1703	 0.372178730746645 
1704	 0.368015620205207 
1705	 0.368484668613214 
1706	 0.374548036497801 
1707	 0.378349056517753 
1708	 0.383971512109677 
1709	 0.382936102075121 
1710	 0.377715521416238 
1711	 0.373837294054205 
1712	 0.367575139936672 
1713	 0.367116625938893 
1714	 0.359283394926596 
1715	 0.34970145446219 
1716	 0.35635475793568 
1717	 0.357287340117245 
1718	 0.355894939404823 
1719	 0.36245332624987 
1720	 0.356895351411468 
1721	 0.353542443481025 
1722	 0.355381432817118 
1723	 0.351674985711476 
1724	 0.340646839487026 
1725	 0.338774235551991 
1726	 0.337672559948648 
1727	 0.339434175826642 
1728	 0.34899098851941 
1729	 0.351746440211853 
1730	 0.356702996129076 
1731	 0.355638876208106 
1732	 0.346056842189624 
1733	 0.34494399240808 
1734	 0.344255447672781 
1735	 0.342659134883523 
1736	 0.344267193174978 
1737	 0.347787298653559 
1738	 0.350635745521797 
1739	 0.348418964862468 
1740	 0.360711852715774 
1741	 0.369400988242014 
1742	 0.364132291282736 
1743	 0.370981125884342 
1744	 0.37270364485891 
1745	 0.354499300124589 
1746	 0.341955692916971 
1747	 0.337876507927311 
1748	 0.331062577485823 
1749	 0.334252162121959 
1750	 0.341612248272649 
1751	 0.343193178706669 
1752	 0.345952070679649 
1753	 0.351063179017066 
1754	 0.358399014784457 
1755	 0.36186738588073 
1756	 0.358332438297786 
1757	 0.354398255581497 
1758	 0.357996523449003 
1759	 0.365519862136008 
1760	 0.367919945084966 
1761	 0.372074698358602 
1762	 0.357581447117188 
1763	 0.328552893372132 
1764	 0.308310916804219 
1765	 0.282040453660117 
1766	 0.279109708612069 
1767	 0.29965992115737 
1768	 0.308939835302281 
1769	 0.327053183163207 
1770	 0.335089136155737 
1771	 0.312850377262729 
1772	 0.319761810375019 
1773	 0.341591547633998 
1774	 0.335230969775842 
1775	 0.353887865630711 
1776	 0.358290532509962 
1777	 0.324416381011045 
1778	 0.331417020710516 
1779	 0.354906263713868 
1780	 0.369155930180256 
1781	 0.355257961789255 
1782	 0.338944524137215 
1783	 0.323349569740082 
1784	 0.297241002501439 
1785	 0.293199461001748 
1786	 0.279110920690375 
1787	 0.283493617087312 
1788	 0.289665994007137 
1789	 0.269057570193389 
1790	 0.217560819600168 
1791	 0.167656544082787 
1792	 0.155220340209066 
1793	 0.130530229261911 
1794	 0.148100696749882 
1795	 0.188115139523859 
1796	 0.243728154307046 
1797	 0.367812274626411 
1798	 0.344759412660239 
1799	 0.237495056849917 
1800	 3.18718289665787E-02 
1801	 1.0429015231221 
1802	 1.00666689101337 
1803	 1.13640859418838 
1804	 1.16910752400925 
1805	 1.15771964964231 
1806	 1.29831509961242 
1807	 1.33203949798454 
1808	 1.23991770280037 
1809	 1.25110608848353 
1810	 1.44671890553464 
1811	 1.42613485766599 
1812	 1.19119720029996 
1813	 1.13615346480988 
1814	 1.06331136443537 
1815	 1.0363842082823 
1816	 1.01776745898599 
1817	 1.25778002815597 
1818	 1.27381062589336 
1819	 1.19672085677567 
1820	 1.15705874082535 
1821	 0.990015224462884 
1822	 0.934593963992019 
1823	 0.98066876992043 
1824	 1.02184568379059 
1825	 1.22757179453302 
1826	 1.18608290850581 
1827	 1.14420227079648 
1828	 1.02041612352466 
1829	 1.01745899618101 
1830	 0.959964769426344 
1831	 0.991453214045207 
1832	 1.22851155519254 
1833	 1.35469288670762 
1834	 1.354035720332 
1835	 1.3893629277987 
1836	 1.43736298816708 
1837	 1.66156332253101 
1838	 1.63387371302221 
1839	 1.39808223728853 
1840	 1.28889478158186 
1841	 1.10441384567501 
1842	 0.960960705150154 
1843	 0.961483018397113 
1844	 0.890467270225881 
1845	 0.696936982724322 
1846	 0.692668527700797 
1847	 0.705064937761362 
1848	 0.771904121248254 
1849	 0.778491697288272 
1850	 0.816090575531114 
1851	 0.843749537979568 
1852	 0.832121414737994 
1853	 0.824250013216006 
1854	 0.847139096313451 
1855	 0.862018183115822 
1856	 0.865302693206481 
1857	 0.832790886939225 
1858	 0.785200003232724 
1859	 0.770241248077819 
1860	 0.683300051605956 
1861	 0.462203987628413 
1862	 0.424399866547231 
1863	 0.465300819667425 
1864	 0.474231309044267 
1865	 0.568267074988901 
1866	 0.640524804267525 
1867	 0.703693315796827 
1868	 0.704165153985032 
1869	 0.755180374433644 
1870	 0.863437477393281 
1871	 0.964554180652663 
1872	 0.973833396932625 
1873	 1.08503354093341 
1874	 1.44233756200961 
1875	 1.61125529272981 
1876	 1.62130465698127 
1877	 1.82838449443657 
1878	 1.84496840807624 
1879	 1.74982723597281 
1880	 1.45336437621238 
1881	 1.04096192766235 
1882	 0.80532204796584 
1883	 0.437772601751062 
1884	 0.381860744822938 
1885	 0.585524541746231 
1886	 0.654114145329215 
1887	 0.867922742993677 
1888	 1.03381091709324 
1889	 0.998091841856534 
1890	 0.696123310153066 
1891	 0.665276528302153 
1892	 0.637631183173579 
1893	 0.641433089092715 
1894	 0.785563640817534 
1895	 0.814594616162806 
1896	 0.713370885055101 
1897	 0.690908158793465 
1898	 0.634279231699457 
1899	 0.688245343018279 
1900	 0.711415250678946 
1901	 0.811677780949047 
1902	 0.873300577125758 
1903	 0.934269333451374 
1904	 0.980395430258191 
1905	 0.967185420898166 
1906	 0.988714572038885 
1907	 1.01024781552547 
1908	 1.03807772555184 
1909	 1.15190548673212 
1910	 1.22607517230195 
1911	 1.15879278174648 
1912	 0.91707512425224 
1913	 0.85513909077215 
1914	 0.744865608590435 
1915	 0.689034233893875 
1916	 0.821481136456335 
1917	 0.848039520380425 
1918	 0.835945698994379 
1919	 0.763129240359586 
1920	 0.737408765582953 
1921	 0.699858185787162 
1922	 0.62884643784395 
1923	 0.400228362755927 
1924	 0.436190807741209 
1925	 0.652404963080946 
1926	 0.684952907352411 
1927	 0.719568838745858 
1928	 0.762168334876277 
1929	 0.688608867227649 
1930	 0.706576776815923 
1931	 1.00210082483453 
1932	 1.63359569028676 
1933	 2.13816412855574 
1934	 2.21860910267579 
1935	 2.00807794885869 
1936	 1.30264025503684 
1937	 1.11920023980281 
1938	 0.870942095910485 
1939	 0.780657214306823 
1940	 0.791372018285195 
1941	 0.834249910087896 
1942	 0.836074903495112 
1943	 0.999583334855621 
1944	 0.947998485901524 
1945	 0.878911400369445 
1946	 0.863652462852939 
1947	 0.819651049392284 
1948	 0.797679967284949 
1949	 0.804392037613825 
1950	 0.829756453172002 
1951	 0.863944854639825 
1952	 0.938039734868778 
1953	 1.05241180994305 
1954	 1.22893815140557 
1955	 1.60158393117492 
1956	 1.70166886379555 
1957	 1.47610369057311 
1958	 1.3399782913057 
1959	 1.30252228871981 
1960	 1.18016685313605 
1961	 1.12744080140574 
1962	 1.26223653828838 
1963	 1.29191160641991 
1964	 1.24770236777339 
1965	 1.17660688996765 
1966	 1.32126474385597 
1967	 1.42572056408976 
1968	 1.23896253914873 
1969	 1.04925902015858 
1970	 0.925446739089862 
1971	 0.727973009332742 
1972	 0.650242754229365 
1973	 0.645441267076325 
1974	 0.607725222597193 
1975	 0.521294021292691 
1976	 0.504473183456506 
1977	 0.50814398204091 
1978	 0.599511169215299 
1979	 0.696715305234352 
1980	 0.696284506817471 
1981	 0.590703930361753 
1982	 0.379196597044328 
1983	 0.331036213898404 
1984	 0.283049480538555 
1985	 0.301945737575618 
1986	 0.52042965758196 
1987	 0.601659735550241 
1988	 0.612566764348484 
1989	 0.568888487394607 
1990	 0.550679628332004 
1991	 0.554972722015022 
1992	 0.542942891689678 
1993	 0.548384311259522 
1994	 0.651625126118486 
1995	 0.694558345338837 
1996	 0.73113057014852 
1997	 0.835827577386092 
1998	 0.837497940539311 
1999	 0.644725885432595 
2000	 0.625176322384576 
2001	 0.615640979418106 
2002	 0.683131359590864 
2003	 0.816294349370039 
2004	 0.797662904044102 
2005	 0.764198723297897 
2006	 0.696841426694458 
2007	 0.588469659991801 
2008	 0.561680749246056 
2009	 0.564203652834948 
2010	 0.580754522085032 
2011	 0.633707244403549 
2012	 0.858537578717606 
2013	 1.04638385308192 
2014	 1.31615993800403 
2015	 1.36570409148773 
2016	 1.22362732149389 
2017	 1.0916278922089 
2018	 0.993530214957529 
2019	 0.908410620292639 
2020	 0.820804431566736 
2021	 0.846952600951853 
2022	 0.761942236070498 
2023	 0.718642333241647 
2024	 0.676123053150603 
2025	 0.6204263806595 
2026	 0.553846054694536 
2027	 0.501345697921868 
2028	 0.438840215938618 
2029	 0.385069062415277 
2030	 0.401816289247325 
2031	 0.38020604131892 
2032	 0.350194243459862 
2033	 0.265477711039767 
2034	 0.176302735927544 
2035	 0.125321544645111 
2036	 8.88506063880378E-02 
2037	 8.73159740228507E-02 
2038	 0.149857854117919 
2039	 0.195312243438534 
2040	 0.282554846171419 
2041	 0.345767144027349 
2042	 0.402881029767553 
2043	 0.450896524814608 
2044	 0.47730541158549 
2045	 0.465002700720842 
2046	 0.511979917427351 
2047	 0.547114238027512 
2048	 0.540560234208549 
2049	 0.482659960602238 
2050	 0.370724923566819 
2051	 0.350108792817181 
2052	 0.354328563777828 
2053	 0.459180794955659 
2054	 0.522922002348903 
2055	 0.6634345086178 
2056	 0.628218536181592 
2057	 0.546872851027729 
2058	 0.512038943935012 
2059	 0.569389066889784 
2060	 0.584971719013318 
2061	 0.582710110740427 
2062	 0.660246881856701 
2063	 0.625190602477203 
2064	 0.617776325204005 
2065	 0.634287686252382 
2066	 0.573353458859615 
2067	 0.537654469044096 
2068	 0.495008271483189 
2069	 0.457127365596344 
2070	 0.426132984499484 
2071	 0.414887858884275 
2072	 0.365919887354077 
2073	 0.324319709222006 
2074	 0.294216063287855 
2075	 0.24167084418778 
2076	 0.225444774835617 
2077	 0.232457539663656 
2078	 0.27037208391394 
2079	 0.337119463584292 
2080	 0.363034584260804 
2081	 0.34963610917669 
2082	 0.357601163146437 
2083	 0.345649750580733 
2084	 0.338402379733134 
2085	 0.330660699091237 
2086	 0.374274266774809 
2087	 0.350830198263308 
2088	 0.293696174233391 
2089	 0.347740667491086 
2090	 0.334515945207138 
2091	 0.356504985567833 
2092	 0.445086590122035 
2093	 0.391848221499533 
2094	 0.341199453328115 
2095	 0.298126442546949 
2096	 0.22988431755335 
2097	 0.191047565609226 
2098	 0.214926220011144 
2099	 0.235266029094007 
2100	 0.254409723818059 
2101	 0.279394498250569 
2102	 0.339120758032293 
2103	 0.37785791719297 
2104	 0.409501557142094 
2105	 0.495972645068043 
2106	 0.493305893399367 
2107	 0.483742284438204 
2108	 0.46057708664153 
2109	 0.397161550138978 
2110	 0.394511102382436 
2111	 0.395041104652904 
2112	 0.41512064794465 
2113	 0.459132797197558 
2114	 0.460233347637502 
2115	 0.448970660476416 
2116	 0.436553348527295 
2117	 0.376617918484363 
2118	 0.352596466277404 
2119	 0.350434658932812 
2120	 0.35502295345732 
2121	 0.349915013550875 
2122	 0.326030147170109 
2123	 0.335482462716649 
2124	 0.344599672783246 
2125	 0.336794875238002 
2126	 0.365784043597065 
2127	 0.358352438933454 
2128	 0.338415588210457 
2129	 0.338847602581709 
2130	 0.31529231620422 
2131	 0.31484594353274 
2132	 0.337165029235956 
2133	 0.347540676755241 
2134	 0.37896686816592 
2135	 0.389518210743729 
2136	 0.391873984813575 
2137	 0.353197025894311 
2138	 0.347347193620149 
2139	 0.317625882044285 
2140	 0.289445569490015 
2141	 0.304878441491061 
2142	 0.326721092383599 
2143	 0.334068027324352 
2144	 0.3702983950315 
2145	 0.381921351160848 
2146	 0.346864216387321 
2147	 0.348470535302536 
2148	 0.343428071200182 
2149	 0.33117219222223 
2150	 0.334193187446757 
2151	 0.371280040741003 
2152	 0.374766063471234 
2153	 0.358658391351468 
2154	 0.350168986248907 
2155	 0.346423845539187 
2156	 0.289582119705912 
2157	 0.254600158955317 
2158	 0.244130030560724 
2159	 0.221627492730796 
2160	 0.228455536875545 
2161	 0.249592324701304 
2162	 0.296152414239407 
2163	 0.342775791359679 
2164	 0.379764828862657 
2165	 0.448348132114398 
2166	 0.453923260028645 
2167	 0.460533313323484 
2168	 0.504847174034872 
2169	 0.476922594920195 
2170	 0.462825902956268 
2171	 0.454095272473546 
2172	 0.423603212396405 
2173	 0.411449544374482 
2174	 0.431369858700617 
2175	 0.425216480579189 
2176	 0.412585210572181 
2177	 0.392742741128431 
2178	 0.386235805757289 
2179	 0.389727769809906 
2180	 0.393322869532385 
2181	 0.415308427711666 
2182	 0.399090540851266 
2183	 0.372109766556021 
2184	 0.372316909524529 
2185	 0.388960388823609 
2186	 0.427506160157961 
2187	 0.463206821167642 
2188	 0.480788398218129 
2189	 0.504754927659346 
2190	 0.525925881762265 
2191	 0.502168296748253 
2192	 0.477127098489952 
2193	 0.423077324196191 
2194	 0.39379205389776 
2195	 0.370171925248863 
2196	 0.361494811961477 
2197	 0.377414477594803 
2198	 0.37249967283268 
2199	 0.36913743704297 
2200	 0.343056532189757 
2201	 0.315841939188036 
2202	 0.312371070496394 
2203	 0.315670834597451 
2204	 0.31303973570751 
2205	 0.31791584793247 
2206	 0.331423097817446 
2207	 0.321905936210833 
2208	 0.346106746445055 
2209	 0.356025625451504 
2210	 0.357100611537251 
2211	 0.415033803062107 
2212	 0.427843061167502 
2213	 0.435096906576594 
2214	 0.455670947733046 
2215	 0.461562188232297 
2216	 0.435101394718291 
2217	 0.450576898937052 
2218	 0.487015645843853 
2219	 0.516062913699934 
2220	 0.594502638536721 
2221	 0.600141675303231 
2222	 0.552673871306605 
2223	 0.520266591953849 
2224	 0.496422061965217 
2225	 0.428518569299172 
2226	 0.411838770814695 
2227	 0.409738754636728 
2228	 0.366629546043261 
2229	 0.352671654918201 
2230	 0.377166806565595 
2231	 0.399442203141761 
2232	 0.454197729434071 
2233	 0.479929101239913 
2234	 0.463722468728908 
2235	 0.488028233798359 
2236	 0.47277762338219 
2237	 0.471837449777139 
2238	 0.489135248879327 
2239	 0.462640076158069 
2240	 0.487648467624489 
2241	 0.541222288909932 
2242	 0.552620184280539 
2243	 0.575347351141951 
2244	 0.551811535710438 
2245	 0.464486583367155 
2246	 0.397789348047341 
2247	 0.303332964886778 
2248	 0.240407245153919 
2249	 0.15594776730638 
2250	 0.134545398954644 
2251	 0.165489372578377 
2252	 0.21009155468165 
2253	 0.29114740289937 
2254	 0.327938743162686 
2255	 0.312632730047342 
2256	 0.326664512339416 
2257	 0.307289375860939 
2258	 0.300512576203922 
2259	 0.371695564473942 
2260	 0.44480681155288 
2261	 0.506528565902056 
2262	 0.571567853129571 
2263	 0.596458779445875 
2264	 0.515479649194501 
2265	 0.443198329012962 
2266	 0.412659808359961 
2267	 0.347700442288448 
2268	 0.368182316324536 
2269	 0.449200421117054 
2270	 0.514618533697969 
2271	 0.523905363762043 
2272	 0.483685740706182 
2273	 0.454801592577323 
2274	 0.390292501166949 
2275	 0.358207940919002 
2276	 0.338506956445383 
2277	 0.360669920206978 
2278	 0.401720317009316 
2279	 0.435114023624142 
2280	 0.513829980637694 
2281	 0.534393494502408 
2282	 0.538459014361107 
2283	 0.51698018205292 
2284	 0.453125371100335 
2285	 0.397099636456821 
2286	 0.374533634069053 
2287	 0.375938026758124 
2288	 0.419669717517125 
2289	 0.481279026380728 
2290	 0.487188178680873 
2291	 0.48641347165566 
2292	 0.519590419513104 
2293	 0.535015873192037 
2294	 0.511669874523206 
2295	 0.53364976856484 
2296	 0.519310058169809 
2297	 0.444728747093995 
2298	 0.463522989049698 
2299	 0.4471369177923 
2300	 0.344658297100565 
2301	 0.283011654617721 
2302	 0.262034031636324 
2303	 0.229267202923274 
2304	 0.23538924389094 
2305	 0.273691769946289 
2306	 0.3405754813172 
2307	 0.478859152939466 
2308	 0.545366429645151 
2309	 0.59283498787728 
2310	 0.577335100034869 
2311	 0.448531027534705 
2312	 0.398313028187536 
2313	 0.334367942102146 
2314	 0.339126819705068 
2315	 0.359102864437655 
2316	 0.430531416543772 
2317	 0.749583271314514 
2318	 0.850787005751118 
2319	 0.831378766591741 
2320	 0.805425560657962 
2321	 0.569085868066478 
2322	 0.524316854175618 
2323	 0.563714852677791 
2324	 0.556834352923984 
2325	 0.531920534646514 
2326	 0.631604884665342 
2327	 0.889026380112808 
2328	 0.929587579996681 
2329	 0.984767659681202 
2330	 0.901920150278538 
2331	 0.536339407910742 
2332	 0.449542550378203 
2333	 0.493306498896266 
2334	 0.463637299491768 
2335	 0.471233763042923 
2336	 0.44421238090055 
2337	 0.458755464552633 
2338	 0.416111803825602 
2339	 0.47422852978906 
2340	 0.642667817975933 
2341	 0.655038908156622 
2342	 0.710039471405839 
2343	 0.676512001849347 
2344	 0.640640233349082 
2345	 0.65773080729602 
2346	 0.644108664489259 
2347	 0.643844724605049 
2348	 0.693473533391602 
2349	 0.664092499414358 
2350	 0.608345215797252 
2351	 0.659476639834326 
2352	 0.623834525506551 
2353	 0.661001758280556 
2354	 0.763737141596182 
2355	 0.844402094392263 
2356	 0.791821997692065 
2357	 0.759179619373532 
2358	 0.734782906351894 
2359	 0.682990494675861 
2360	 0.92375131939734 
2361	 1.10400429593455 
2362	 1.05857191939539 
2363	 1.11205571612979 
2364	 1.01952992329701 
2365	 0.957020149525953 
2366	 0.963382526763562 
2367	 0.817725653503196 
2368	 0.668043513345668 
2369	 0.595362582290412 
2370	 0.646403153593736 
2371	 0.6613508514481 
2372	 0.747398902346223 
2373	 0.734758611377991 
2374	 0.643446854325563 
2375	 0.629321299876968 
2376	 0.576663132170135 
2377	 0.635722700448282 
2378	 0.86249285986697 
2379	 1.06073444934734 
2380	 1.20580372833349 
2381	 1.25531726298647 
2382	 1.24879251663847 
2383	 1.25865813878606 
2384	 1.21443448306028 
2385	 1.16294848511962 
2386	 1.1852170525031 
2387	 1.13276354706347 
2388	 0.996932188798462 
2389	 0.899542229886199 
2390	 0.761843197146515 
2391	 0.742391051452496 
2392	 0.809627165712349 
2393	 0.780697107643288 
2394	 0.737742907826417 
2395	 0.764283664636166 
2396	 0.754932063510745 
2397	 0.764491073786877 
2398	 0.82236694749075 
2399	 0.970922125368809 
2400	 1.45411663914767 
2401	 1.41342099811874 
2402	 1.3228585598609 
2403	 1.07133300471181 
2404	 0.337752453053475 
2405	 0.348628820899066 
2406	 0.695204334518332 
2407	 0.803689082466115 
2408	 1.11028316472215 
2409	 1.20663827678873 
2410	 0.994033868984599 
2411	 1.02049352963735 
2412	 1.24642843363468 
2413	 1.24014643420001 
2414	 1.12848395917139 
2415	 1.06071857190237 
2416	 0.804924896412945 
2417	 0.83558125918619 
2418	 1.18039230686817 
2419	 1.24909939745907 
2420	 1.42868639142121 
2421	 1.34578391591545 
2422	 0.882699171816207 
2423	 0.940118474379159 
2424	 1.35553310656088 
2425	 1.40486244126424 
2426	 1.59220237040899 
2427	 1.58509051659148 
2428	 1.12903300884185 
2429	 1.05842377369286 
2430	 1.16146494235588 
2431	 1.17598629113256 
2432	 1.20984858195467 
2433	 1.16275425832391 
2434	 1.01429275182757 
2435	 0.932879379883068 
2436	 0.671564820241302 
2437	 0.858589612286077 
2438	 1.5468897534339 
2439	 1.5054185277894 
2440	 1.41069489963388 
2441	 1.33846219425468 
2442	 0.953934611950705 
2443	 1.02217594153292 
2444	 1.78768257160362 
2445	 1.52878860515749 
2446	 1.18004823488878 
2447	 0.999727525789934 
2448	 0.621772870551268 
2449	 0.830569605706258 
2450	 1.21224049413941 
2451	 1.31289801758989 
2452	 1.40467225087483 
2453	 1.04031533764497 
2454	 0.693566589523864 
2455	 0.743299973784776 
2456	 0.972959837016517 
2457	 1.11850761713246 
2458	 1.23686500327939 
2459	 1.18235118282058 
2460	 1.26261784261884 
2461	 2.30283263906081 
2462	 3.01649676902382 
2463	 2.21733255366737 
2464	 2.17989998803803 
2465	 1.6715253072056 
2466	 1.45716092154097 
2467	 1.98109482409823 
2468	 2.02539662524623 
2469	 1.48889136489341 
2470	 1.39134449109425 
2471	 0.902788173542309 
2472	 1.20758514821795 
2473	 4.46757703708054 
2474	 4.70711564778964 
2475	 3.65889767934846 
2476	 3.01300877242051 
2477	 1.6600628824278 
2478	 1.36193480094451 
2479	 1.39936962150071 
2480	 1.29026589658074 
2481	 1.22910647657122 
2482	 1.10212178232331 
2483	 0.826742205294049 
2484	 0.881736852474676 
2485	 1.36279724789938 
2486	 1.57362070560662 
2487	 2.37483034831665 
2488	 2.29410915779999 
2489	 1.2362747296988 
2490	 1.02482389115651 
2491	 0.915657163601354 
2492	 0.861226229576501 
2493	 0.842921966208898 
2494	 0.824921795609396 
2495	 0.825339837171996 
2496	 0.829137165344144 
2497	 0.815789572121608 
2498	 0.874502072694109 
2499	 0.965961099072601 
2500	 1.11315106424689 
