Wavelength	000008.asd
350	 1.37229616736529E-02 
351	 0.01377577556163 
352	 1.51453600825558E-02 
353	 1.46613157003672E-02 
354	 1.58620335497788E-02 
355	 1.60007185385583E-02 
356	 1.46247709934948E-02 
357	 1.38831216197926E-02 
358	 0.013903311420116 
359	 1.46433009832386E-02 
360	 0.015756360206133 
361	 1.66140787954897E-02 
362	 1.68060255544292E-02 
363	 1.71521249707015E-02 
364	 1.79889381260016E-02 
365	 1.77517527936521E-02 
366	 1.69370296839855E-02 
367	 1.64913914269011E-02 
368	 1.71957773160829E-02 
369	 1.83967803458525E-02 
370	 1.91157639012127E-02 
371	 1.93343254990115E-02 
372	 1.96963620785996E-02 
373	 2.00777845856632E-02 
374	 2.01128760748759E-02 
375	 2.00931185480321E-02 
376	 0.021094918380471 
377	 2.13318532971749E-02 
378	 2.18508492972403E-02 
379	 2.33932619105302E-02 
380	 2.44888476886469E-02 
381	 2.52206609490856E-02 
382	 2.54549315321138E-02 
383	 2.54315014599175E-02 
384	 2.70220549474321E-02 
385	 2.84274842430324E-02 
386	 2.94822265291457E-02 
387	 3.10114680451285E-02 
388	 3.16319392730911E-02 
389	 3.25456646045177E-02 
390	 3.43446178427189E-02 
391	 3.65364376714128E-02 
392	 3.91665641250997E-02 
393	 4.16384637002046E-02 
394	 4.37231407344087E-02 
395	 4.62398146299504E-02 
396	 4.84340329554538E-02 
397	 5.03683550536219E-02 
398	 0.052378669431932 
399	 5.46857165884201E-02 
400	 5.72679375630977E-02 
401	 5.98067928180631E-02 
402	 6.19780902249198E-02 
403	 6.47735802594522E-02 
404	 6.74752905358733E-02 
405	 6.98549991402163E-02 
406	 7.25342409269523E-02 
407	 7.52359469835348E-02 
408	 7.79443272428004E-02 
409	 0.080608310508464 
410	 8.29387167432883E-02 
411	 8.54137207566798E-02 
412	 0.087673272411566 
413	 8.92348829789984E-02 
414	 9.08612095678149E-02 
415	 9.22700559009759E-02 
416	 9.34993464738767E-02 
417	 9.48760568905332E-02 
418	 0.096179773760009 
419	 9.73149979714625E-02 
420	 9.82014427851779E-02 
421	 9.87253006951885E-02 
422	 9.95175223742928E-02 
423	 0.100151474622134 
424	 0.100235746680217 
425	 0.100853587170736 
426	 0.101456026874914 
427	 0.101971109579889 
428	 0.10258119082743 
429	 0.102436816610846 
430	 0.102483384945596 
431	 0.103065354827793 
432	 0.10344641162633 
433	 0.103721708013922 
434	 0.104030485779534 
435	 0.10439773773572 
436	 0.104456264855278 
437	 0.104506629186713 
438	 0.104695148305955 
439	 0.105043888598874 
440	 0.105337988392046 
441	 0.105595462481396 
442	 0.105796822875003 
443	 0.105863416578783 
444	 0.105912884644797 
445	 0.106042635395529 
446	 0.106260416010132 
447	 0.106383536719589 
448	 0.106432902957915 
449	 0.106510632022584 
450	 0.106690301337681 
451	 0.10660988525364 
452	 0.106736995614767 
453	 0.107080818661537 
454	 0.107130201529184 
455	 0.107103624254948 
456	 0.10712954573968 
457	 0.107278286874694 
458	 0.107542681746885 
459	 0.107617507567012 
460	 0.107611822306052 
461	 0.107750182032267 
462	 0.107762115797082 
463	 0.107861968375716 
464	 0.108065211417699 
465	 0.108156040497652 
466	 0.108234430545553 
467	 0.108223772765848 
468	 0.108177964724637 
469	 0.108613879462928 
470	 0.10869978831161 
471	 0.108496375431634 
472	 0.108417842819951 
473	 0.108440226705174 
474	 0.10850180772165 
475	 0.108622892788538 
476	 0.108897280452927 
477	 0.108807595673082 
478	 0.108825038544099 
479	 0.109229269947817 
480	 0.10926383328428 
481	 0.109364578154514 
482	 0.109569895793824 
483	 0.109746735292772 
484	 0.10983640108931 
485	 0.109932644756582 
486	 0.110038994701954 
487	 0.110038417244823 
488	 0.110184840324237 
489	 0.110386353710617 
490	 0.110526809691222 
491	 0.110644275629711 
492	 0.110823901539033 
493	 0.111047586839905 
494	 0.111240934009318 
495	 0.111354356731854 
496	 0.111541409104346 
497	 0.111810736806951 
498	 0.11195925976105 
499	 0.112252787875618 
500	 0.112587271695043 
501	 0.112801340695322 
502	 0.112880153573239 
503	 0.112948024252792 
504	 0.113123426352604 
505	 0.113487440909928 
506	 0.113907122279757 
507	 0.114317839813007 
508	 0.114762930343082 
509	 0.115442306441736 
510	 0.115983551763912 
511	 0.11640279445594 
512	 0.116797022235934 
513	 0.11702070278439 
514	 0.117564374517499 
515	 0.118235096296528 
516	 0.11835817015756 
517	 0.118769626903329 
518	 0.11938240021597 
519	 0.119924000456848 
520	 0.120067918246643 
521	 0.120436292833755 
522	 0.120804383902504 
523	 0.120825999532556 
524	 0.121044631626024 
525	 0.12140623040663 
526	 0.121777257566454 
527	 0.121988928255027 
528	 0.122331801724914 
529	 0.122710647212927 
530	 0.123015234996522 
531	 0.123284596982306 
532	 0.123530415660993 
533	 0.123777298956958 
534	 0.124033555586738 
535	 0.124170089612227 
536	 0.124197173693274 
537	 0.124185940209543 
538	 0.124261973367246 
539	 0.124538054795539 
540	 0.124776712712077 
541	 0.124768220458371 
542	 0.124755068032049 
543	 0.124895966938274 
544	 0.125108938643326 
545	 0.125186706259627 
546	 0.125448582128806 
547	 0.125636359352117 
548	 0.12566670785809 
549	 0.125931508391479 
550	 0.126134626968068 
551	 0.126293115032611 
552	 0.126484668652394 
553	 0.12653159870298 
554	 0.126689142564858 
555	 0.126919022461924 
556	 0.126906502341504 
557	 0.127122255973435 
558	 0.127310805465167 
559	 0.127279103755966 
560	 0.12742887992575 
561	 0.127441313545527 
562	 0.127346226227991 
563	 0.127317787539633 
564	 0.127270131483936 
565	 0.127212677816326 
566	 0.127155250482309 
567	 0.127097601624623 
568	 0.12699934132967 
569	 0.126895027027802 
570	 0.12685758376118 
571	 0.127020995240551 
572	 0.127123480271188 
573	 0.127051660306944 
574	 0.126845146784586 
575	 0.126848400967869 
576	 0.126961990246117 
577	 0.127064642110056 
578	 0.127168109407074 
579	 0.127305518030458 
580	 0.127470509888054 
581	 0.127628075242752 
582	 0.127661872238979 
583	 0.127856274721745 
584	 0.128126134396377 
585	 0.127938510264344 
586	 0.127861270841609 
587	 0.127644427603231 
588	 0.12707942796908 
589	 0.126943767731881 
590	 0.126847807435084 
591	 0.126912722784776 
592	 0.127458696651352 
593	 0.127647942440899 
594	 0.12783166414741 
595	 0.128213304849986 
596	 0.128512408008723 
597	 0.128796598998167 
598	 0.129083552379026 
599	 0.129373133476673 
600	 0.129674059406977 
601	 0.129770004385007 
602	 0.129815105191967 
603	 0.13024999508612 
604	 0.130324981485756 
605	 0.130305462954995 
606	 0.130459973509769 
607	 0.130566394065692 
608	 0.130793639028837 
609	 0.13105669238314 
610	 0.1311554062903 
611	 0.131082405300362 
612	 0.130890215278381 
613	 0.130732062862275 
614	 0.130890952366737 
615	 0.130950849920455 
616	 0.130848547239957 
617	 0.130709585834033 
618	 0.130958380548067 
619	 0.131114939055961 
620	 0.131059401433193 
621	 0.130969467468144 
622	 0.131183914179527 
623	 0.131298130365357 
624	 0.131083408532396 
625	 0.130997792026325 
626	 0.130595824420872 
627	 0.130221355614996 
628	 0.13037157495995 
629	 0.130359895776775 
630	 0.130414529127741 
631	 0.130580478068383 
632	 0.130641855740353 
633	 0.131048960256195 
634	 0.131394485823599 
635	 0.131342626748664 
636	 0.131339385143426 
637	 0.131272110781352 
638	 0.131263722850129 
639	 0.131477581943797 
640	 0.13120693576164 
641	 0.131001001235999 
642	 0.131158222332546 
643	 0.131316709450596 
644	 0.131282818549777 
645	 0.130917494946962 
646	 0.130259988676864 
647	 0.130006981969756 
648	 0.130062549248025 
649	 0.130305982398826 
650	 0.130605306603393 
651	 0.130522179365588 
652	 0.130594944879827 
653	 0.131013450408529 
654	 0.130773227204498 
655	 0.130715140268256 
656	 0.130928556296861 
657	 0.131121062015067 
658	 0.131114222660712 
659	 0.13141033361153 
660	 0.131895471712767 
661	 0.131773623505351 
662	 0.131734670093221 
663	 0.131680461415551 
664	 0.131513248864244 
665	 0.131715638329366 
666	 0.131846228034892 
667	 0.131871581181017 
668	 0.131972196817726 
669	 0.131905887886637 
670	 0.131899094476812 
671	 0.132033388521743 
672	 0.132074532015 
673	 0.13204090829065 
674	 0.132065968430918 
675	 0.132256139132979 
676	 0.13246183521896 
677	 0.132476731256073 
678	 0.132403796109279 
679	 0.132578787687546 
680	 0.132944745010304 
681	 0.133177106106338 
682	 0.133138179290094 
683	 0.133157110278716 
684	 0.133322181611413 
685	 0.133274537247394 
686	 0.132704054630617 
687	 0.133149286911233 
688	 0.133689691583569 
689	 0.133886061514097 
690	 0.134261616069007 
691	 0.134453002072419 
692	 0.134654250202605 
693	 0.135009800979934 
694	 0.135125808838066 
695	 0.13581659872635 
696	 0.136969931714936 
697	 0.138068738905243 
698	 0.138361892658881 
699	 0.138608037115548 
700	 0.139279898400508 
701	 0.140295476693541 
702	 0.141141729751565 
703	 0.142011708237459 
704	 0.143123600071144 
705	 0.144229780434339 
706	 0.145009486410552 
707	 0.145753184718728 
708	 0.146988873308198 
709	 0.148011289252819 
710	 0.149094173321278 
711	 0.150237026513028 
712	 0.150954142116436 
713	 0.151818087653579 
714	 0.15275118133065 
715	 0.153366878543953 
716	 0.152471663007567 
717	 0.151857429176853 
718	 0.152284294100546 
719	 0.153129451346486 
720	 0.155848183009985 
721	 0.158222180890222 
722	 0.159445981818178 
723	 0.159763831703913 
724	 0.160386792308862 
725	 0.161675714630437 
726	 0.16341212922838 
727	 0.16495853232727 
728	 0.166163266693402 
729	 0.167366225708132 
730	 0.169145305694709 
731	 0.171241239840975 
732	 0.173694318632365 
733	 0.17603787157285 
734	 0.17734230701612 
735	 0.178554766606754 
736	 0.179822290226905 
737	 0.181081567343849 
738	 0.182458224666405 
739	 0.184354863713089 
740	 0.186223163779933 
741	 0.187173300772825 
742	 0.188491631194895 
743	 0.189681487966698 
744	 0.190531154254543 
745	 0.191483614527471 
746	 0.192499955574477 
747	 0.193341557359257 
748	 0.19389344263932 
749	 0.194680454826827 
750	 0.195114933520803 
751	 0.195416764420993 
752	 0.196189943960316 
753	 0.196821584555994 
754	 0.197280310734589 
755	 0.197625878063512 
756	 0.197949874154147 
757	 0.198171959195721 
758	 0.197881119407576 
759	 0.196480288708072 
760	 0.194118308128493 
761	 0.191548272036101 
762	 0.190868569577691 
763	 0.191610888779545 
764	 0.193248334324803 
765	 0.195149314360908 
766	 0.196905418544659 
767	 0.198494008799657 
768	 0.199600376325724 
769	 0.200282872505521 
770	 0.200670885185311 
771	 0.20104623310984 
772	 0.201363568639696 
773	 0.201546150347788 
774	 0.201534272473815 
775	 0.201414934292482 
776	 0.201532416378897 
777	 0.201726293242303 
778	 0.201485361129603 
779	 0.201821683823416 
780	 0.202088184621093 
781	 0.20192592461965 
782	 0.20196155661739 
783	 0.201856559055214 
784	 0.201575729798623 
785	 0.201220074569432 
786	 0.20109162261565 
787	 0.200639146453622 
788	 0.200041582614356 
789	 0.199893430644565 
790	 0.199677153354333 
791	 0.199882161733669 
792	 0.20047086199542 
793	 0.200697596172372 
794	 0.200452842519558 
795	 0.200110126837466 
796	 0.199981506210849 
797	 0.199948871705265 
798	 0.199735533539942 
799	 0.199470646533476 
800	 0.199394916735414 
801	 0.199459837087106 
802	 0.199345279608723 
803	 0.199299767011746 
804	 0.199875414577535 
805	 0.200339601086842 
806	 0.200434420293097 
807	 0.200112269485069 
808	 0.199502791979912 
809	 0.198768646439782 
810	 0.19819158310002 
811	 0.197817726195483 
812	 0.196861616952761 
813	 0.195584342213775 
814	 0.194437256886808 
815	 0.19391015752981 
816	 0.193315349310187 
817	 0.193262721729179 
818	 0.193726531071243 
819	 0.19420346501348 
820	 0.194957518513617 
821	 0.195315044587824 
822	 0.195214163525924 
823	 0.195474611080571 
824	 0.195387077984372 
825	 0.195420119707468 
826	 0.195777054362388 
827	 0.195595057643729 
828	 0.19567426341839 
829	 0.195997747755055 
830	 0.196218775138244 
831	 0.196007631445557 
832	 0.196050799021427 
833	 0.196484375946404 
834	 0.197084876066891 
835	 0.197833783351383 
836	 0.198155685781352 
837	 0.198233559743823 
838	 0.198886505920578 
839	 0.199230113652565 
840	 0.199248487723378 
841	 0.199285124137466 
842	 0.200009877265985 
843	 0.200475245764062 
844	 0.200421230626239 
845	 0.200055696090428 
846	 0.200275349202874 
847	 0.200717583788814 
848	 0.200966929888316 
849	 0.200731505672568 
850	 0.200447885271958 
851	 0.200522399130721 
852	 0.20063135307865 
853	 0.20019502570939 
854	 0.200676795810438 
855	 0.201152467724647 
856	 0.201103843662615 
857	 0.200734016958483 
858	 0.200575444653632 
859	 0.200565731396514 
860	 0.200742408030465 
861	 0.20141834344704 
862	 0.201350218389833 
863	 0.201354227727295 
864	 0.201872743117955 
865	 0.201179456268214 
866	 0.20095805879502 
867	 0.201266655891094 
868	 0.201571255362308 
869	 0.201420858868638 
870	 0.201216454031548 
871	 0.201118886647373 
872	 0.201152250255525 
873	 0.201312054201361 
874	 0.201238323363731 
875	 0.201000521621228 
876	 0.200878053179085 
877	 0.200238403786729 
878	 0.200027496956607 
879	 0.200358601556528 
880	 0.200453574348065 
881	 0.200541129290059 
882	 0.200016869869126 
883	 0.199118029714368 
884	 0.199171345591544 
885	 0.199377922898272 
886	 0.199239358204501 
887	 0.198751696348912 
888	 0.198645996950186 
889	 0.199133404434704 
890	 0.199200171145835 
891	 0.198071301807461 
892	 0.196328801817527 
893	 0.195724376255236 
894	 0.194457725576587 
895	 0.191181820399277 
896	 0.192568665480029 
897	 0.192575057445869 
898	 0.190973677251363 
899	 0.190230623061255 
900	 0.190167135533708 
901	 0.189697264905609 
902	 0.189676082102369 
903	 0.190883090126645 
904	 0.190053261017311 
905	 0.189888394418195 
906	 0.190453787220148 
907	 0.190323059371679 
908	 0.189491625324778 
909	 0.187969875819302 
910	 0.186624101955616 
911	 0.186625367536599 
912	 0.187162485825211 
913	 0.186392270076353 
914	 0.1860171408882 
915	 0.189229949782691 
916	 0.187660437833863 
917	 0.186497355413681 
918	 0.18720294993658 
919	 0.187303881832513 
920	 0.188408228017312 
921	 0.187556303665865 
922	 0.185397132086828 
923	 0.18591642476091 
924	 0.185441609039564 
925	 0.184697501564729 
926	 0.18407370733456 
927	 0.182712301844056 
928	 0.183706746960985 
929	 0.181264085428591 
930	 0.172955831433395 
931	 0.170358803614002 
932	 0.172561583620373 
933	 0.180190785481945 
934	 0.186072117265822 
935	 0.174739730596707 
936	 0.166305582433708 
937	 0.165015960276439 
938	 0.166223283478191 
939	 0.161838394693411 
940	 0.163575723416889 
941	 0.164129451613247 
942	 0.162167825834196 
943	 0.16534523451596 
944	 0.168555396708679 
945	 0.162425244898976 
946	 0.154057231189902 
947	 0.166566241070695 
948	 0.161080184498355 
949	 0.159825354383349 
950	 0.166271735927001 
951	 0.158283660204452 
952	 0.166957076081909 
953	 0.171180912842158 
954	 0.162293098357348 
955	 0.15210543188513 
956	 0.161558035314109 
957	 0.172869346495123 
958	 0.17333655202683 
959	 0.163134473745706 
960	 0.173177332344622 
961	 0.178690489400194 
962	 0.173305694386659 
963	 0.168145573597606 
964	 0.169457792974136 
965	 0.173385463727372 
966	 0.175951042126343 
967	 0.174735274617951 
968	 0.170717169253142 
969	 0.17463211782064 
970	 0.180654423819179 
971	 0.17782320225011 
972	 0.17744527608276 
973	 0.178489993332871 
974	 0.177746532630595 
975	 0.172940981945336 
976	 0.16906123360958 
977	 0.173367314005365 
978	 0.178661015583396 
979	 0.176653595627542 
980	 0.174947994077733 
981	 0.178681441043226 
982	 0.182418866209674 
983	 0.18132841612671 
984	 0.180505080831102 
985	 0.181620780892692 
986	 0.18396736951053 
987	 0.185624802581489 
988	 0.184269713129325 
989	 0.182333412299741 
990	 0.180352366185809 
991	 0.178864338991262 
992	 0.178861724128278 
993	 0.181950166291856 
994	 0.185281175321299 
995	 0.187220312945981 
996	 0.188373170483511 
997	 0.187771280976109 
998	 0.187737060644496 
999	 0.186247953246119 
1000	 0.180269920552967 
1001	 0.191645044042869 
1002	 0.192652164685476 
1003	 0.194629685202761 
1004	 0.196499903733253 
1005	 0.200957144815646 
1006	 0.200480020525784 
1007	 0.195085321789885 
1008	 0.194123858703997 
1009	 0.192639206360693 
1010	 0.193028704601363 
1011	 0.194313130213061 
1012	 0.197159140166726 
1013	 0.195418322887659 
1014	 0.191227015311075 
1015	 0.191194720271937 
1016	 0.192326263189043 
1017	 0.193249717255773 
1018	 0.196941887594977 
1019	 0.19842497249675 
1020	 0.197329880320164 
1021	 0.197178721885963 
1022	 0.197842317637742 
1023	 0.197335299419571 
1024	 0.194809505853009 
1025	 0.197254423132367 
1026	 0.197827257687996 
1027	 0.195071277845268 
1028	 0.195492290658494 
1029	 0.195555028495811 
1030	 0.193928226956052 
1031	 0.19268781454297 
1032	 0.19301247972025 
1033	 0.193697738988702 
1034	 0.194404245345076 
1035	 0.197879925865836 
1036	 0.199177224858191 
1037	 0.199680865015487 
1038	 0.197819858426157 
1039	 0.196624509083802 
1040	 0.195298656843774 
1041	 0.195611039737855 
1042	 0.198288790222533 
1043	 0.199857033060497 
1044	 0.200202453580454 
1045	 0.200640125648126 
1046	 0.199882012772549 
1047	 0.199849387991109 
1048	 0.201633196860344 
1049	 0.201507123833333 
1050	 0.198895712744458 
1051	 0.198361350386732 
1052	 0.198416903037736 
1053	 0.197446038312284 
1054	 0.197969117230649 
1055	 0.199626043156459 
1056	 0.198822305656002 
1057	 0.199589422700589 
1058	 0.200581317701675 
1059	 0.199675974123585 
1060	 0.197835431751637 
1061	 0.196022388732497 
1062	 0.19688755761712 
1063	 0.19782924165136 
1064	 0.198357676425229 
1065	 0.200314650466364 
1066	 0.201923873239976 
1067	 0.200679454735411 
1068	 0.201540119361112 
1069	 0.202411080875234 
1070	 0.202085493377316 
1071	 0.202503252106954 
1072	 0.200513120112596 
1073	 0.199985755311616 
1074	 0.200256516556088 
1075	 0.199491043534302 
1076	 0.199042372356712 
1077	 0.196905058567457 
1078	 0.197044266387739 
1079	 0.197580855912419 
1080	 0.199080545659418 
1081	 0.198948367488951 
1082	 0.199935115551454 
1083	 0.200674448033121 
1084	 0.199689768944922 
1085	 0.200724528795981 
1086	 0.203806152617412 
1087	 0.20217778625174 
1088	 0.200171643104028 
1089	 0.20003073013015 
1090	 0.196972937501527 
1091	 0.196317909140501 
1092	 0.196285218054199 
1093	 0.195209619110271 
1094	 0.197942952737349 
1095	 0.199963091414517 
1096	 0.203072274491958 
1097	 0.205510543006927 
1098	 0.206729743590444 
1099	 0.204901045585081 
1100	 0.202700406731258 
1101	 0.200968398182838 
1102	 0.200565497591387 
1103	 0.200886912289128 
1104	 0.201691337466206 
1105	 0.201025487121771 
1106	 0.19945670190348 
1107	 0.200712918596166 
1108	 0.199868241965905 
1109	 0.199386850248067 
1110	 0.199215480645888 
1111	 0.19889782766194 
1112	 0.196985108224659 
1113	 0.193611987877068 
1114	 0.191725366442099 
1115	 0.186647819174661 
1116	 0.193670083903403 
1117	 0.201104245711454 
1118	 0.206901176007032 
1119	 0.232590443273294 
1120	 0.246365850175298 
1121	 0.276936227998796 
1122	 0.32699031811374 
1123	 0.376582940601341 
1124	 0.456222110197893 
1125	 0.437728764945644 
1126	 0.387433811122334 
1127	 0.388503924306846 
1128	 0.397484383502042 
1129	 0.377594891850437 
1130	 0.374137709173968 
1131	 0.389490027930266 
1132	 0.333156445531084 
1133	 0.274481973036878 
1134	 0.263165232629555 
1135	 0.234229841747948 
1136	 0.225497746011009 
1137	 0.230205535601921 
1138	 0.207228108028019 
1139	 0.207125140844808 
1140	 0.204989750307574 
1141	 0.192175242803319 
1142	 0.196051479441636 
1143	 0.213356793334497 
1144	 0.215237411713603 
1145	 0.229181561961738 
1146	 0.233611875578947 
1147	 0.223699498669991 
1148	 0.215902987310363 
1149	 0.204625475825922 
1150	 0.18791383854703 
1151	 0.181746934843816 
1152	 0.177151674862461 
1153	 0.179318002907142 
1154	 0.186636948297455 
1155	 0.186306040483337 
1156	 0.188393583584069 
1157	 0.190618762917483 
1158	 0.188667149079545 
1159	 0.187707512484614 
1160	 0.184249383021879 
1161	 0.184100511639913 
1162	 0.186805131686832 
1163	 0.186833486798857 
1164	 0.186508015354127 
1165	 0.18681023781595 
1166	 0.18451888782681 
1167	 0.180439822014443 
1168	 0.177064457672948 
1169	 0.17549797651633 
1170	 0.176748130803645 
1171	 0.181303537528087 
1172	 0.186473715997985 
1173	 0.189386162946892 
1174	 0.191961472512119 
1175	 0.190269614180271 
1176	 0.189553496771708 
1177	 0.188420030591636 
1178	 0.187644431414275 
1179	 0.186347298241357 
1180	 0.185885732451465 
1181	 0.184373697762664 
1182	 0.184559948391539 
1183	 0.186789606997994 
1184	 0.187255622479358 
1185	 0.189080661667433 
1186	 0.191278906026499 
1187	 0.18876265670926 
1188	 0.188402290538153 
1189	 0.18682547502856 
1190	 0.182946348703399 
1191	 0.184325156588311 
1192	 0.185271500814369 
1193	 0.184606812942502 
1194	 0.183881358937139 
1195	 0.184079234482691 
1196	 0.182700218202751 
1197	 0.182892764905296 
1198	 0.185741543449312 
1199	 0.186885561566965 
1200	 0.186785208879638 
1201	 0.186582443761194 
1202	 0.185812202668569 
1203	 0.186393911554591 
1204	 0.184546699157056 
1205	 0.186343523224005 
1206	 0.188438611668 
1207	 0.18837222819914 
1208	 0.19129819158817 
1209	 0.191505941588026 
1210	 0.19191778692812 
1211	 0.192534541985378 
1212	 0.192405578619175 
1213	 0.191338526971957 
1214	 0.191094318504388 
1215	 0.189870875265643 
1216	 0.189669540117606 
1217	 0.189983484250505 
1218	 0.19064316234758 
1219	 0.193466629662666 
1220	 0.194222293371309 
1221	 0.194327967474327 
1222	 0.193486895127398 
1223	 0.193517774953623 
1224	 0.191871697067957 
1225	 0.190995924043049 
1226	 0.191576442542484 
1227	 0.192125336556436 
1228	 0.192113232589591 
1229	 0.193297989906203 
1230	 0.196489817044246 
1231	 0.198099686659079 
1232	 0.199242396998905 
1233	 0.200142100806485 
1234	 0.200713648483611 
1235	 0.20085616142186 
1236	 0.200254343954863 
1237	 0.200677686266799 
1238	 0.201792988885557 
1239	 0.201768283828661 
1240	 0.201079155094268 
1241	 0.201430161684718 
1242	 0.201836941073138 
1243	 0.201726838764521 
1244	 0.202675754427952 
1245	 0.204115931126553 
1246	 0.204342058873178 
1247	 0.20466697941656 
1248	 0.205399998302789 
1249	 0.206761644939977 
1250	 0.207196620450271 
1251	 0.207483943006041 
1252	 0.207420729729302 
1253	 0.206532611925561 
1254	 0.206305341460993 
1255	 0.206440875110579 
1256	 0.206041821948341 
1257	 0.205648220644533 
1258	 0.205224137715625 
1259	 0.203953178489408 
1260	 0.203488885325636 
1261	 0.203100388771681 
1262	 0.202974673196043 
1263	 0.203461452427925 
1264	 0.204840296836774 
1265	 0.202800834681895 
1266	 0.203044882916884 
1267	 0.20344205943686 
1268	 0.201919246188137 
1269	 0.203186384221208 
1270	 0.207814941912514 
1271	 0.209261454947028 
1272	 0.210683734954744 
1273	 0.2107556407689 
1274	 0.208363068113596 
1275	 0.208035088066362 
1276	 0.207693972645908 
1277	 0.207494366920355 
1278	 0.208625242790949 
1279	 0.209001253156964 
1280	 0.208966728122225 
1281	 0.209070703808458 
1282	 0.208657839486962 
1283	 0.208776208687793 
1284	 0.209855103648157 
1285	 0.20944366669274 
1286	 0.209160372432584 
1287	 0.209406886788555 
1288	 0.208942664666118 
1289	 0.209699674875623 
1290	 0.209344069024089 
1291	 0.209020246868588 
1292	 0.209198258623366 
1293	 0.20918270154719 
1294	 0.208280841503426 
1295	 0.207565481848987 
1296	 0.206634450294731 
1297	 0.204093427207541 
1298	 0.202751936621672 
1299	 0.202121790742093 
1300	 0.202074253867387 
1301	 0.202711178257082 
1302	 0.202943896991024 
1303	 0.204583237651916 
1304	 0.204958717256308 
1305	 0.202888976610201 
1306	 0.202612698812833 
1307	 0.202654974145956 
1308	 0.204056564826847 
1309	 0.204645898716973 
1310	 0.205248263245824 
1311	 0.204437399139528 
1312	 0.201551034430439 
1313	 0.199878973981795 
1314	 0.198009789903727 
1315	 0.197261610494973 
1316	 0.19648333878654 
1317	 0.196969277085528 
1318	 0.200287108433951 
1319	 0.200806587737992 
1320	 0.200256149063029 
1321	 0.20126287924486 
1322	 0.201346606005895 
1323	 0.201897559816863 
1324	 0.204783391376059 
1325	 0.206134530480238 
1326	 0.208191474221657 
1327	 0.206765385172386 
1328	 0.199728924098227 
1329	 0.196270411090007 
1330	 0.189299546293571 
1331	 0.184814603099255 
1332	 0.186242343866029 
1333	 0.190650312869854 
1334	 0.193542398393709 
1335	 0.191316384855226 
1336	 0.189920876309166 
1337	 0.18582561139086 
1338	 0.187199565430057 
1339	 0.19175654247328 
1340	 0.192561184107872 
1341	 0.193454490467174 
1342	 0.199258219493957 
1343	 0.202052411115365 
1344	 0.214536253126577 
1345	 0.257123703969742 
1346	 0.297266698236792 
1347	 0.368138740670555 
1348	 0.445741841350872 
1349	 0.503795499270342 
1350	 0.709719177082315 
1351	 1.07791206832648 
1352	-92.4540943174473 
1353	-2.89144887085433 
1354	-1.49187305710778 
1355	-1.48139408258759 
1356	-1.36191632483626 
1357	-1.18919560008756 
1358	-1.21152659473151 
1359	-1.56769286054475 
1360	-2.09295770498826 
1361	-1.92371515390711 
1362	-1.82153079657381 
1363	-1.55241613374183 
1364	-0.528122800812352 
1365	-0.573257916284037 
1366	-2.9998610452906 
1367	 3.73676262428653 
1368	 1.48942696945714 
1369	 2.65933872119262 
1370	-4.19266667743197 
1371	-1.59121168317293 
1372	-0.811750326553611 
1373	-0.681848998468255 
1374	-0.405467503894031 
1375	-0.248528785030441 
1376	-0.219075833677464 
1377	-7.59031072496751E-02 
1378	-0.335641805570378 
1379	-0.315376178444608 
1380	 5.55162888910807E-02 
1381	 3.90742731288647E-02 
1382	-0.311462970676312 
1383	-1.10184095634176 
1384	-4.49191197945396 
1385	-8.39271404180954 
1386	-7.09830722483453 
1387	-4.61769093033698 
1388	-4.33247122131569 
1389	-7.92019319730662 
1390	-7.47747144565227 
1391	-7.51477874162183 
1392	-9.79261013101868 
1393	-11.6434620172984 
1394	-6.2266415610431 
1395	-10.2445209779708 
1396	-3.25911808836821 
1397	-1.09737460000274 
1398	-0.75093630186448 
1399	-0.202922387800969 
1400	-0.136511314295117 
1401	-0.352798177730983 
1402	-0.522005719399662 
1403	-1.07261626599109 
1404	-1.29011217972624 
1405	-1.34304905634709 
1406	-1.16742698233301 
1407	-0.433645758882712 
1408	-0.320209554435328 
1409	-0.258383581850787 
1410	-0.229642552393597 
1411	-0.926288571628669 
1412	-1.36808775418634 
1413	-1.47987264552153 
1414	-1.35374648404653 
1415	-1.14938879735416 
1416	-0.953812076029666 
1417	-0.477670008715076 
1418	-0.378410469671884 
1419	-0.453554549023448 
1420	-0.600615055433234 
1421	-0.54225316378882 
1422	-0.303222383643515 
1423	-0.393988605744857 
1424	-0.651655795525514 
1425	-3.95040894347184 
1426	 9.02012768062573 
1427	 4.47371318907554 
1428	 3.79793701803802 
1429	 2.9388311298977 
1430	 2.65387439874815 
1431	 2.65059122286181 
1432	 2.37390377344692 
1433	 2.46512599807701 
1434	 3.49646260669031 
1435	 3.56196047108384 
1436	 3.55747051890715 
1437	 2.34215415993203 
1438	 0.573639433356216 
1439	 0.192964997196939 
1440	 0.172052454161625 
1441	 0.240299229426128 
1442	 0.709488899532904 
1443	 1.20664367370313 
1444	 1.76368531853021 
1445	 1.54913024904359 
1446	 1.1686081719805 
1447	 0.888575023920054 
1448	 0.677107261396443 
1449	 0.480460026275376 
1450	 0.276881704558324 
1451	 0.226121905700843 
1452	 0.169202088535013 
1453	 0.152511739101976 
1454	 0.180428818738597 
1455	 0.263808095843321 
1456	 0.280615851693718 
1457	 0.225953412304736 
1458	 0.189009128309355 
1459	 0.119463888628491 
1460	 0.106451169130438 
1461	 0.111121354591301 
1462	 0.101097282496794 
1463	 9.98489623027708E-02 
1464	 0.102274081827181 
1465	 8.59337551083236E-02 
1466	 0.105987685267063 
1467	 0.194584987622232 
1468	 0.225736137038712 
1469	 0.228589775626174 
1470	 0.243063489078087 
1471	 0.226624412133519 
1472	 0.219770840146351 
1473	 0.219696629200919 
1474	 0.231604767391851 
1475	 0.242416750472915 
1476	 0.237402644582843 
1477	 0.2515753959574 
1478	 0.235570458190622 
1479	 0.167072969409818 
1480	 0.151878961879648 
1481	 0.165321059742077 
1482	 0.153759702034555 
1483	 0.141905664409369 
1484	 0.149007413657673 
1485	 0.148294030821278 
1486	 0.156905805059986 
1487	 0.190180032467164 
1488	 0.19760684990376 
1489	 0.195574275752077 
1490	 0.188343276627744 
1491	 0.167865708706846 
1492	 0.163903670609398 
1493	 0.165612401205822 
1494	 0.165646062471614 
1495	 0.172334011932798 
1496	 0.175364738203656 
1497	 0.176393973202889 
1498	 0.173910896103176 
1499	 0.169628149459003 
1500	 0.164715021274932 
1501	 0.164260136361441 
1502	 0.161204599607277 
1503	 0.16862857923199 
1504	 0.176765527872934 
1505	 0.180054586789519 
1506	 0.183282164894319 
1507	 0.183924449213766 
1508	 0.182012075605327 
1509	 0.1792566139183 
1510	 0.173897020135509 
1511	 0.173033426041634 
1512	 0.172517795816825 
1513	 0.171311259064464 
1514	 0.173646171481054 
1515	 0.171564889803409 
1516	 0.164429306602483 
1517	 0.163611394967843 
1518	 0.164642104570545 
1519	 0.165303248244894 
1520	 0.169178698140797 
1521	 0.169791663055647 
1522	 0.168455952220348 
1523	 0.168147167580491 
1524	 0.166331309571752 
1525	 0.167453639224203 
1526	 0.171105106032598 
1527	 0.172000421254147 
1528	 0.174324251147344 
1529	 0.17365309303126 
1530	 0.168500143966215 
1531	 0.166907609434113 
1532	 0.163522190214212 
1533	 0.165704626339194 
1534	 0.173964817248805 
1535	 0.178241068044402 
1536	 0.186479882826136 
1537	 0.188342159855321 
1538	 0.183455436532575 
1539	 0.181450642468098 
1540	 0.17668761167579 
1541	 0.175269541249167 
1542	 0.177695685303433 
1543	 0.177508607777785 
1544	 0.177796800545403 
1545	 0.176852425553453 
1546	 0.171560959721394 
1547	 0.170996213725711 
1548	 0.173648883184546 
1549	 0.174647604382865 
1550	 0.178472675740526 
1551	 0.180043736467704 
1552	 0.178615906565214 
1553	 0.178264684783831 
1554	 0.178143443861685 
1555	 0.177664012792245 
1556	 0.177121443730865 
1557	 0.176326533576408 
1558	 0.174708282655937 
1559	 0.173761836220136 
1560	 0.171813975576955 
1561	 0.171805193617957 
1562	 0.173787495683036 
1563	 0.175720708741626 
1564	 0.176361233910755 
1565	 0.179288405451873 
1566	 0.182379556065508 
1567	 0.182900907922487 
1568	 0.182328990990493 
1569	 0.181830003376568 
1570	 0.18033261534792 
1571	 0.180741868224785 
1572	 0.180677517272813 
1573	 0.182337867916223 
1574	 0.18418985991201 
1575	 0.180970268334789 
1576	 0.18067688562975 
1577	 0.180548178610193 
1578	 0.179748243339793 
1579	 0.181770058059891 
1580	 0.183296869755471 
1581	 0.185335565744669 
1582	 0.186604001686148 
1583	 0.187026779758074 
1584	 0.186504633946663 
1585	 0.186797567074516 
1586	 0.187376625813395 
1587	 0.187785183311 
1588	 0.187511026211976 
1589	 0.187636562283065 
1590	 0.187961953411652 
1591	 0.188113384472536 
1592	 0.186826297286384 
1593	 0.185459250011713 
1594	 0.183654779862585 
1595	 0.179307797315279 
1596	 0.178639685796887 
1597	 0.180376676159194 
1598	 0.180776952559502 
1599	 0.181822679827403 
1600	 0.182487536447198 
1601	 0.182870684496326 
1602	 0.182625443531705 
1603	 0.18196915429018 
1604	 0.182428033709133 
1605	 0.182415640336934 
1606	 0.183475641026598 
1607	 0.186626894828103 
1608	 0.187313279396237 
1609	 0.186674853351753 
1610	 0.187145893470388 
1611	 0.187473011713874 
1612	 0.187509878788122 
1613	 0.187710844207755 
1614	 0.187929093625568 
1615	 0.188343785801604 
1616	 0.187292459698436 
1617	 0.185761711832806 
1618	 0.18487837923425 
1619	 0.182007622845043 
1620	 0.182074731812013 
1621	 0.184965522354968 
1622	 0.185473420115738 
1623	 0.186118729888764 
1624	 0.186200190273996 
1625	 0.184772719476934 
1626	 0.184740425705903 
1627	 0.185706511700592 
1628	 0.185333510596682 
1629	 0.185262876731789 
1630	 0.183898353347711 
1631	 0.180155845573664 
1632	 0.179173771831212 
1633	 0.178169476028094 
1634	 0.178889529371662 
1635	 0.181618656878734 
1636	 0.184159744163553 
1637	 0.189119969680395 
1638	 0.190579519487984 
1639	 0.192009707245618 
1640	 0.190397845153605 
1641	 0.183237976711971 
1642	 0.182075926706234 
1643	 0.181281997512457 
1644	 0.182558467765127 
1645	 0.188310104289279 
1646	 0.191286109409948 
1647	 0.194366417606623 
1648	 0.196345138887731 
1649	 0.197884976705433 
1650	 0.198649725064591 
1651	 0.198281343611501 
1652	 0.19652691350591 
1653	 0.19490629190802 
1654	 0.191809422818126 
1655	 0.185289283082592 
1656	 0.18318476440062 
1657	 0.180586652367387 
1658	 0.179981124668746 
1659	 0.183087294088432 
1660	 0.183170900974647 
1661	 0.183637207154683 
1662	 0.185882863523505 
1663	 0.186268656134016 
1664	 0.191322057888912 
1665	 0.194134869268531 
1666	 0.194371289920682 
1667	 0.196588108011499 
1668	 0.197748940414762 
1669	 0.194995218676031 
1670	 0.190989444737242 
1671	 0.188714304476933 
1672	 0.185210706327433 
1673	 0.183041046133181 
1674	 0.182337472824147 
1675	 0.181932165706768 
1676	 0.182365633397193 
1677	 0.183687625675273 
1678	 0.187080184978949 
1679	 0.188639616359055 
1680	 0.188039728373666 
1681	 0.185989282042618 
1682	 0.185747744128139 
1683	 0.189005920208173 
1684	 0.19261573990681 
1685	 0.195448089064985 
1686	 0.197656483286822 
1687	 0.19496456543341 
1688	 0.188715234126334 
1689	 0.185984585188952 
1690	 0.184025978557712 
1691	 0.184130369841795 
1692	 0.188510434997572 
1693	 0.191211830524814 
1694	 0.192172121258505 
1695	 0.190522466417179 
1696	 0.184955048761801 
1697	 0.182725538377782 
1698	 0.179607145036674 
1699	 0.17420388911136 
1700	 0.172907794343211 
1701	 0.172247850255024 
1702	 0.171781580927049 
1703	 0.175314165916806 
1704	 0.179623127542082 
1705	 0.181194381417278 
1706	 0.185119396450017 
1707	 0.18662827813463 
1708	 0.184391041722803 
1709	 0.185842438822551 
1710	 0.188142111566758 
1711	 0.185874887849455 
1712	 0.184227934101425 
1713	 0.183673818947112 
1714	 0.179294577814331 
1715	 0.182809037330819 
1716	 0.191984556716295 
1717	 0.198975277064017 
1718	 0.205409529150631 
1719	 0.203688811330752 
1720	 0.197047245601503 
1721	 0.192070152596067 
1722	 0.18184718130722 
1723	 0.17863018655395 
1724	 0.180542996566465 
1725	 0.180014248926562 
1726	 0.183296994305619 
1727	 0.183778068809536 
1728	 0.181759462955503 
1729	 0.179260613985641 
1730	 0.170937661770844 
1731	 0.173062082430992 
1732	 0.183894032127044 
1733	 0.184769355432414 
1734	 0.189067855858416 
1735	 0.190590216662926 
1736	 0.179224092144086 
1737	 0.176451115899167 
1738	 0.181736871436454 
1739	 0.18174622050888 
1740	 0.182780047180237 
1741	 0.185057716072925 
1742	 0.190292243799533 
1743	 0.192692600393145 
1744	 0.189709666528305 
1745	 0.18914680971179 
1746	 0.183634054245226 
1747	 0.180401157044912 
1748	 0.186568479196319 
1749	 0.192344719163158 
1750	 0.196240929852325 
1751	 0.199822795649398 
1752	 0.204177794063141 
1753	 0.209775431077789 
1754	 0.211752572454735 
1755	 0.209456639817766 
1756	 0.206788413269597 
1757	 0.202300096104961 
1758	 0.203639068934396 
1759	 0.206540951071582 
1760	 0.207344325592746 
1761	 0.20650739466636 
1762	 0.194651479221637 
1763	 0.197479929879176 
1764	 0.199757892185556 
1765	 0.189343164379585 
1766	 0.196774841993883 
1767	 0.196321328967867 
1768	 0.203087345259089 
1769	 0.220471712942966 
1770	 0.226889634747159 
1771	 0.231762549718403 
1772	 0.226960577291473 
1773	 0.229806053221827 
1774	 0.228746517237189 
1775	 0.229815981325926 
1776	 0.227776688561098 
1777	 0.187685087546624 
1778	 0.177690428970286 
1779	 0.171903279932809 
1780	 0.156774981939111 
1781	 0.169724533768794 
1782	 0.192908066781188 
1783	 0.220684257430726 
1784	 0.230611934310344 
1785	 0.25936037979619 
1786	 0.284840702629527 
1787	 0.253126009789033 
1788	 0.25509173590941 
1789	 0.24968147177183 
1790	 0.219475911024178 
1791	 0.205785004021422 
1792	 0.216133269683791 
1793	 0.25003276411936 
1794	 0.279209811284016 
1795	 0.433002833700262 
1796	 0.66994902024241 
1797	 0.747246959345462 
1798	 0.780854155851814 
1799	 0.670696970714363 
1800	 0.606792485291933 
1801	 0.727381473133968 
1802	 0.822223261657404 
1803	 1.04967765408846 
1804	 1.12771920097041 
1805	 0.893159392695571 
1806	 0.866633234216196 
1807	 0.891820080766613 
1808	 0.925192408104612 
1809	 0.965184835959959 
1810	 1.18261332773641 
1811	 1.23652860285371 
1812	 1.26768633175064 
1813	 1.14174443744559 
1814	 0.767991176328034 
1815	 0.674733334811692 
1816	 0.717665520503058 
1817	 0.630717555081008 
1818	 0.646158007678702 
1819	 0.804180569530525 
1820	 0.857465222334937 
1821	 0.867773230653643 
1822	 0.919946923220464 
1823	 0.941385201817636 
1824	 1.04097467107576 
1825	 1.30618467329503 
1826	 1.43878575139355 
1827	 1.44828146323736 
1828	 1.43922144138445 
1829	 1.2847726763585 
1830	 0.900195658217052 
1831	 0.814674664816515 
1832	 0.829886309038712 
1833	 0.805988881926013 
1834	 0.857984685428313 
1835	 0.837433924451279 
1836	 0.781693338780381 
1837	 0.670533561847949 
1838	 0.640449526092431 
1839	 0.579825349510838 
1840	 0.598243600038192 
1841	 0.779839701227774 
1842	 0.781813478518336 
1843	 0.622281193556805 
1844	 0.644412820029465 
1845	 0.652533354653271 
1846	 0.748671639819971 
1847	 0.739633191303742 
1848	 0.825897601724969 
1849	 0.892331441010138 
1850	 0.783346233241034 
1851	 0.810727439212372 
1852	 1.14585520671758 
1853	 1.17301569783513 
1854	 0.963110980875698 
1855	 0.889871880377251 
1856	 0.808629105327671 
1857	 0.620453714927146 
1858	 0.619570303280924 
1859	 0.803150545731422 
1860	 0.804387089295807 
1861	 0.79645638591447 
1862	 0.760889026808692 
1863	 0.532088614220324 
1864	 0.505784519866694 
1865	 0.661864623387433 
1866	 0.71452984810949 
1867	 0.768917167661483 
1868	 0.895662437848677 
1869	 1.0149185725428 
1870	 1.02556738586654 
1871	 1.06506653847047 
1872	 1.28644464386977 
1873	 1.2629830569606 
1874	 0.976924595368792 
1875	 0.880071484403985 
1876	 0.743469538219253 
1877	 0.691364460886069 
1878	 0.701386498552459 
1879	 0.790632727558826 
1880	 0.897345376701475 
1881	 1.23503639949663 
1882	 1.28386740886241 
1883	 1.29736372129306 
1884	 1.25797625657284 
1885	 0.896508382846045 
1886	 0.750309142882056 
1887	 0.709140411306961 
1888	 0.602036025331269 
1889	 0.591251252761934 
1890	 0.626331998170395 
1891	 0.690214321203078 
1892	 0.889912401486651 
1893	 0.969535059642525 
1894	 0.984146278366081 
1895	 1.04511421182917 
1896	 1.23017122620488 
1897	 1.18597521536337 
1898	 1.03882165586584 
1899	 0.901876273581374 
1900	 0.794488757793714 
1901	 0.60300567612438 
1902	 0.598381350001911 
1903	 0.729718187246178 
1904	 0.767501963989174 
1905	 0.838673367186771 
1906	 0.881708597674408 
1907	 0.826812381223519 
1908	 0.7955125118771 
1909	 0.769447884796679 
1910	 0.803684913942681 
1911	 0.797343967631085 
1912	 0.699614541427066 
1913	 0.79030590636717 
1914	 1.05335802489654 
1915	 1.1482725304653 
1916	 1.42124321831734 
1917	 1.52077128428401 
1918	 1.19185745237967 
1919	 1.24216359005672 
1920	 1.24273300625515 
1921	 1.25052994922256 
1922	 1.20963742516221 
1923	 1.09222485327792 
1924	 1.0819532290198 
1925	 1.09163418855117 
1926	 1.10012041795774 
1927	 1.28011261520562 
1928	 1.3373143456875 
1929	 1.3333182991145 
1930	 1.23011998793694 
1931	 1.08254550820738 
1932	 0.869442870331245 
1933	 0.689024448533924 
1934	 0.690758207343042 
1935	 0.658026839355327 
1936	 0.736789320039339 
1937	 0.719717262280965 
1938	 0.5947016514405 
1939	 0.586350295001907 
1940	 0.607935232598894 
1941	 0.666983271487325 
1942	 0.769697252820438 
1943	 0.934944722457356 
1944	 0.911869852369327 
1945	 0.889318435508449 
1946	 0.837265251905468 
1947	 0.584470123928388 
1948	 0.571332135983411 
1949	 0.78505544389585 
1950	 0.796609992306866 
1951	 0.855459763029549 
1952	 0.855925610199569 
1953	 0.722177181472142 
1954	 0.524871502927715 
1955	 0.554823595701517 
1956	 0.645805174922312 
1957	 0.712562707525344 
1958	 0.800902502757298 
1959	 0.884035616640277 
1960	 0.913540784592464 
1961	 1.01271613686741 
1962	 1.47122453820765 
1963	 1.55982764540988 
1964	 1.41941959278911 
1965	 1.24775903671672 
1966	 0.948766991025963 
1967	 0.683340964170716 
1968	 0.553517301467227 
1969	 0.568087232758685 
1970	 0.553224563506188 
1971	 0.591752931004837 
1972	 0.630831410597273 
1973	 0.69590917541431 
1974	 0.703299399889236 
1975	 0.688226454557359 
1976	 0.671353231564588 
1977	 0.638174591944658 
1978	 0.578904796035236 
1979	 0.526195098580066 
1980	 0.53387764125931 
1981	 0.487861405603866 
1982	 0.480053851400134 
1983	 0.452068120306209 
1984	 0.412539738624593 
1985	 0.394622372738039 
1986	 0.351546818632354 
1987	 0.356879703128839 
1988	 0.39334784374497 
1989	 0.469346618546431 
1990	 0.512911076353022 
1991	 0.584950919028955 
1992	 0.59298346751077 
1993	 0.573935482004993 
1994	 0.59592731395269 
1995	 0.572030544690482 
1996	 0.537999376432029 
1997	 0.481943717596309 
1998	 0.453359802251171 
1999	 0.380800767699058 
2000	 0.346771807023967 
2001	 0.344604319726251 
2002	 0.34612166985178 
2003	 0.314057020723409 
2004	 0.529799744068599 
2005	 0.629094615080884 
2006	 0.60356229064604 
2007	 0.683236636466589 
2008	 0.644166123731398 
2009	 0.685454048108287 
2010	 0.866364102445885 
2011	 0.87933465203785 
2012	 0.833031611147293 
2013	 0.80665387708067 
2014	 0.719036256837943 
2015	 0.622401257144285 
2016	 0.6303643327266 
2017	 0.569936712686091 
2018	 0.557873057266571 
2019	 0.55753860329135 
2020	 0.528588108548285 
2021	 0.506329124752959 
2022	 0.482107685751552 
2023	 0.460151519121506 
2024	 0.451457645512846 
2025	 0.512098137305136 
2026	 0.488594220089116 
2027	 0.442810888522449 
2028	 0.368853074606238 
2029	 0.323297044200861 
2030	 0.285201945385547 
2031	 0.277254085939653 
2032	 0.305740887245791 
2033	 0.338438751161508 
2034	 0.391490950730985 
2035	 0.407054918812846 
2036	 0.403336391115418 
2037	 0.398138089022429 
2038	 0.350322261716485 
2039	 0.336269940955787 
2040	 0.332481344344082 
2041	 0.337107505699004 
2042	 0.369138831645866 
2043	 0.380460696776904 
2044	 0.357459419495346 
2045	 0.399196977505654 
2046	 0.414994941140667 
2047	 0.413588626883003 
2048	 0.439769396115122 
2049	 0.417510594475318 
2050	 0.374892330331145 
2051	 0.329102972449846 
2052	 0.29624122565869 
2053	 0.249518663377238 
2054	 0.230032161837829 
2055	 0.230988061768187 
2056	 0.243578296193698 
2057	 0.260449553712386 
2058	 0.259640180100596 
2059	 0.29575816036508 
2060	 0.333971521522642 
2061	 0.362026522624638 
2062	 0.39003280680251 
2063	 0.383837941885179 
2064	 0.367024802296074 
2065	 0.351972258458429 
2066	 0.360468561044432 
2067	 0.36677491835155 
2068	 0.379329790791533 
2069	 0.378447735288964 
2070	 0.383920509767234 
2071	 0.365588811759835 
2072	 0.344525794338307 
2073	 0.358389177169676 
2074	 0.374573280848033 
2075	 0.388328964525384 
2076	 0.375185321558188 
2077	 0.360652725439271 
2078	 0.360639204962316 
2079	 0.330577468156118 
2080	 0.330662478648574 
2081	 0.328013234006598 
2082	 0.30437057172565 
2083	 0.249124729747397 
2084	 0.242834684676689 
2085	 0.246117096488429 
2086	 0.245473844254138 
2087	 0.286474174269502 
2088	 0.304419752699731 
2089	 0.298381064854059 
2090	 0.298733098687265 
2091	 0.259821294936354 
2092	 0.238149751121031 
2093	 0.227398641292054 
2094	 0.205707305796866 
2095	 0.231644910188497 
2096	 0.27051546383565 
2097	 0.293200520452546 
2098	 0.304251288879965 
2099	 0.305028730994491 
2100	 0.271777156153756 
2101	 0.252948138377045 
2102	 0.22455063364441 
2103	 0.232766524372272 
2104	 0.243058061463834 
2105	 0.259273372715253 
2106	 0.270828082026915 
2107	 0.294693659269845 
2108	 0.30014911989739 
2109	 0.324697550959329 
2110	 0.385670584232277 
2111	 0.39514442789818 
2112	 0.412371657020219 
2113	 0.399459803627052 
2114	 0.373373591200734 
2115	 0.309171922304832 
2116	 0.282012974326963 
2117	 0.253902945154597 
2118	 0.248395448807042 
2119	 0.268663722693037 
2120	 0.274338838562528 
2121	 0.280845239954612 
2122	 0.261364581667128 
2123	 0.224769271956446 
2124	 0.23260284738266 
2125	 0.249282974517085 
2126	 0.256420066005483 
2127	 0.268954175585592 
2128	 0.254965037004854 
2129	 0.237372363245341 
2130	 0.239340521523137 
2131	 0.22960225995931 
2132	 0.223220973642278 
2133	 0.223422586339664 
2134	 0.227433391052946 
2135	 0.222557827904935 
2136	 0.223090292414643 
2137	 0.208949823955974 
2138	 0.209078374155468 
2139	 0.203175362292841 
2140	 0.213531202941601 
2141	 0.255746486937506 
2142	 0.265428970510881 
2143	 0.256825925840971 
2144	 0.265567222955508 
2145	 0.273534200516573 
2146	 0.247404888038231 
2147	 0.254036843958765 
2148	 0.241700355135303 
2149	 0.205798596559266 
2150	 0.207405204323302 
2151	 0.241655877579691 
2152	 0.249771675845258 
2153	 0.279059204747231 
2154	 0.285957960621993 
2155	 0.266740400724942 
2156	 0.271987216946076 
2157	 0.259365385328586 
2158	 0.261371392560281 
2159	 0.254252558764813 
2160	 0.236474002950982 
2161	 0.258797146035011 
2162	 0.263621143717762 
2163	 0.283536172377077 
2164	 0.330278633225576 
2165	 0.34142336046534 
2166	 0.370499755939023 
2167	 0.374896916043298 
2168	 0.337806893465391 
2169	 0.309740138140605 
2170	 0.262898521991183 
2171	 0.239789762936011 
2172	 0.231865125347373 
2173	 0.220453112344168 
2174	 0.224800667482266 
2175	 0.237123278364959 
2176	 0.241050005648582 
2177	 0.270539419756714 
2178	 0.342625515021721 
2179	 0.347229999264965 
2180	 0.330480939599773 
2181	 0.33580226671862 
2182	 0.297637688860029 
2183	 0.278291814340919 
2184	 0.271560135912695 
2185	 0.230880273679764 
2186	 0.222583677518566 
2187	 0.21794711850031 
2188	 0.236061681130836 
2189	 0.283825207563504 
2190	 0.314118392573572 
2191	 0.378457931823561 
2192	 0.396878250949643 
2193	 0.371663279812426 
2194	 0.375091336478428 
2195	 0.362956596651262 
2196	 0.336443221501305 
2197	 0.304236297820172 
2198	 0.329509242131854 
2199	 0.299317474468659 
2200	 0.286535009485688 
2201	 0.325270625491706 
2202	 0.302393507985325 
2203	 0.291303829564096 
2204	 0.293240322956237 
2205	 0.28599936112085 
2206	 0.309731292362856 
2207	 0.336225577039404 
2208	 0.352299982017516 
2209	 0.351312964107036 
2210	 0.356015339026232 
2211	 0.350403840979589 
2212	 0.315207451261628 
2213	 0.282484054339317 
2214	 0.241296143776829 
2215	 0.220146051586329 
2216	 0.197742854799202 
2217	 0.203592083147955 
2218	 0.245254788505205 
2219	 0.266529192605567 
2220	 0.285986155657553 
2221	 0.30209175760171 
2222	 0.312185414463607 
2223	 0.315166716612426 
2224	 0.335438675201239 
2225	 0.352313999112117 
2226	 0.372410039056731 
2227	 0.408539339643616 
2228	 0.409388013658999 
2229	 0.403415586531907 
2230	 0.407458698605113 
2231	 0.393126951496 
2232	 0.397583296772594 
2233	 0.423601138833827 
2234	 0.427371705168604 
2235	 0.426665527260058 
2236	 0.452446124046851 
2237	 0.474988398765676 
2238	 0.489352190755731 
2239	 0.499140009920171 
2240	 0.45074875789527 
2241	 0.402902078236101 
2242	 0.374585172268752 
2243	 0.333876139221004 
2244	 0.303561930742855 
2245	 0.323513057929567 
2246	 0.294855368201905 
2247	 0.239216674075377 
2248	 0.21525372838847 
2249	 0.181754369317861 
2250	 0.181740249109729 
2251	 0.197165057389635 
2252	 0.248981761057754 
2253	 0.291171032160419 
2254	 0.341529536990038 
2255	 0.39166660527759 
2256	 0.384220123503385 
2257	 0.42263029947622 
2258	 0.428064953550098 
2259	 0.400982669982928 
2260	 0.414913198864584 
2261	 0.349557868723981 
2262	 0.281090179902493 
2263	 0.24087190849312 
2264	 0.217738141062405 
2265	 0.247875104222768 
2266	 0.303693550692673 
2267	 0.355119482754748 
2268	 0.36656804911853 
2269	 0.34578153808297 
2270	 0.324412604304089 
2271	 0.31127932177792 
2272	 0.267666719843828 
2273	 0.26771441464723 
2274	 0.305516063081909 
2275	 0.342712195925779 
2276	 0.441347799370418 
2277	 0.464404981949419 
2278	 0.465597440257445 
2279	 0.441262166808843 
2280	 0.297804465713416 
2281	 0.253595998879574 
2282	 0.258325797008364 
2283	 0.237702375801694 
2284	 0.240835684629368 
2285	 0.259116231119881 
2286	 0.209238861748644 
2287	 0.169725134051629 
2288	 0.134731232956123 
2289	 0.124323958748569 
2290	 0.158508030764971 
2291	 0.208300679683158 
2292	 0.243298712966858 
2293	 0.304859256736488 
2294	 0.353904365377437 
2295	 0.345573390794089 
2296	 0.416879927851359 
2297	 0.467992913924004 
2298	 0.458215457760457 
2299	 0.487008822642093 
2300	 0.411986722348496 
2301	 0.2974200117177 
2302	 0.272574261365247 
2303	 0.333423667166813 
2304	 0.355245306825219 
2305	 0.352596123740701 
2306	 0.405014778858848 
2307	 0.380898915551171 
2308	 0.41480705562042 
2309	 0.552871456368371 
2310	 0.582966958174965 
2311	 0.587851492177953 
2312	 0.539969116288754 
2313	 0.362538617162201 
2314	 0.31019289113272 
2315	 0.292598629718427 
2316	 0.271774923638539 
2317	 0.305623210728859 
2318	 0.329916482106596 
2319	 0.32844922048763 
2320	 0.351235873169272 
2321	 0.460668085273535 
2322	 0.496659132834795 
2323	 0.487687427561684 
2324	 0.501348272504952 
2325	 0.481103195268775 
2326	 0.449990688904073 
2327	 0.414170929990884 
2328	 0.387059230111364 
2329	 0.320839053531812 
2330	 0.300923695519123 
2331	 0.362569160930549 
2332	 0.369804835471937 
2333	 0.355709808792617 
2334	 0.361661652914768 
2335	 0.351857956647062 
2336	 0.304058006067653 
2337	 0.330378133017912 
2338	 0.376883044985346 
2339	 0.443087301492155 
2340	 0.418814757835225 
2341	 0.4101117043954 
2342	 0.396644863348751 
2343	 0.354736417793538 
2344	 0.46193819757148 
2345	 0.606563625053019 
2346	 0.834023567634573 
2347	 0.942413506404955 
2348	 0.926411408382047 
2349	 0.868763440777274 
2350	 0.681401869172784 
2351	 0.617655242007212 
2352	 0.596103457895217 
2353	 0.582149050149884 
2354	 0.58435771260278 
2355	 0.509526596546613 
2356	 0.482451236444952 
2357	 0.43226988375626 
2358	 0.320464003348366 
2359	 0.34945337864729 
2360	 0.381099050794438 
2361	 0.480800727169979 
2362	 0.624479758043647 
2363	 0.661488372186491 
2364	 0.735985434074326 
2365	 0.820930040843128 
2366	 0.844526972154456 
2367	 0.92598889266726 
2368	 0.892319994056807 
2369	 0.752876046025827 
2370	 0.689125907075044 
2371	 0.615598474979869 
2372	 0.512879898348672 
2373	 0.494651810790888 
2374	 0.525120360872889 
2375	 0.542553839511932 
2376	 0.565891139665374 
2377	 0.635453135442931 
2378	 0.772235374702365 
2379	 0.807944730048313 
2380	 0.824083953076034 
2381	 0.891731657368683 
2382	 0.860505048006579 
2383	 0.925738765838473 
2384	 1.31325320353131 
2385	 1.32525514770317 
2386	 0.976429277411913 
2387	 1.00059099350061 
2388	 1.10636257100505 
2389	 1.08825055601907 
2390	 1.29755151753394 
2391	 1.16976213603609 
2392	 0.792481474688897 
2393	 0.671805278469599 
2394	 0.575914452910967 
2395	 0.514351846848192 
2396	 0.419137589345136 
2397	 0.442351172611892 
2398	 0.572481168294438 
2399	 0.63903962494611 
2400	 0.776863378857509 
2401	 0.851369486573695 
2402	 0.815766757692531 
2403	 0.902626135724778 
2404	 1.11171388954899 
2405	 1.17228347109775 
2406	 1.25311773668226 
2407	 1.15324373927378 
2408	 0.888422091255763 
2409	 0.734695486063639 
2410	 0.522000116715338 
2411	 0.462839147930051 
2412	 0.505197942211847 
2413	 0.456585600078372 
2414	 0.399150591725951 
2415	 0.376276926392521 
2416	 0.312581338458597 
2417	 0.328778177307663 
2418	 0.510570065238216 
2419	 0.566771126935035 
2420	 0.579141967089861 
2421	 0.569037193146169 
2422	 0.449500835175247 
2423	 0.433090262258874 
2424	 0.46011221034383 
2425	 0.460726870086376 
2426	 0.469652646884271 
2427	 0.513540380814243 
2428	 0.57017092332121 
2429	 0.637387999274164 
2430	 0.825299267383204 
2431	 0.879784273280265 
2432	 0.842279976132494 
2433	 0.796264566861218 
2434	 0.635120689901904 
2435	 0.526712845685487 
2436	 0.293048165336289 
2437	 0.455452946167875 
2438	 0.807833317923921 
2439	 1.0029481656849 
2440	 1.51297367196492 
2441	 1.55240668648419 
2442	 1.22243182511135 
2443	 1.1578806565503 
2444	 0.770082411068391 
2445	 0.876602830752935 
2446	 3.29516281686263 
2447	 2.72562335493722 
2448	 1.95112915388512 
2449	 1.4997676711598 
2450	 1.06893714865573 
2451	 0.932971782101769 
2452	 1.15679677163581 
2453	 1.50643370490157 
2454	 2.10960127449002 
2455	 2.14738447656264 
2456	 1.66708944029238 
2457	 1.65095593897316 
2458	 1.56780200201304 
2459	 1.683728476713 
2460	 1.86739577323573 
2461	 3.10600366990989 
2462	 3.38070567677792 
2463	 2.5790192502576 
2464	 1.76648736410178 
2465	 0.62869990299248 
2466	 0.423652980773482 
2467	 0.590542876621853 
2468	 0.535632367883044 
2469	 0.38937058015605 
2470	 0.385427210908765 
2471	 0.381557076290614 
2472	 0.318782231912353 
2473	 0.292024621904292 
2474	 0.414088287410727 
2475	 0.441231492497385 
2476	 0.548756233801814 
2477	 0.978781246986714 
2478	 0.995468924496732 
2479	 0.655623833252156 
2480	 0.594198745355397 
2481	 0.422034193686395 
2482	 0.350314789744636 
2483	 0.736567804447332 
2484	 0.85315372767719 
2485	 0.663617613766148 
2486	 0.766933578609987 
2487	 1.46615237398841 
2488	 5.09491357157229 
2489	-24.7075388167435 
2490	 24.5179116356063 
2491	 3.69010753589681 
2492	 2.12722256642249 
2493	 1.03628301352324 
2494	 0.764367868958383 
2495	 0.558448008448488 
2496	 0.481080538249658 
2497	 0.398273333688815 
2498	 0.498188959577213 
2499	 1.103349133596 
2500	 1.45512563872268 
