Wavelength	000010.asd
350	 4.03066036399026E-02 
351	 4.07787126667801E-02 
352	 4.01739631579103E-02 
353	 4.05868394251728E-02 
354	 0.039939980461747 
355	 0.040035180069393 
356	 4.07607236029119E-02 
357	 4.01794285211166E-02 
358	 4.10817438670143E-02 
359	 4.12660773882595E-02 
360	 4.01171733357048E-02 
361	 4.03680989667874E-02 
362	 4.03696927831963E-02 
363	 4.09492485724183E-02 
364	 4.24147227358837E-02 
365	 4.25117276393021E-02 
366	 4.19482057970316E-02 
367	 4.11730078264851E-02 
368	 4.05412136241028E-02 
369	 4.02521886748069E-02 
370	 4.03322905237375E-02 
371	 4.06829905044333E-02 
372	 4.11014851288137E-02 
373	 4.13304950075261E-02 
374	 4.11398001294678E-02 
375	 4.10332502970727E-02 
376	 4.22864263104203E-02 
377	 4.04775708667377E-02 
378	 3.91625769789845E-02 
379	 4.07897216960919E-02 
380	 4.06622430558427E-02 
381	 4.11675912421609E-02 
382	 4.13690570081723E-02 
383	 4.02262043109395E-02 
384	 4.14558702312128E-02 
385	 4.20651556548788E-02 
386	 4.16510330351829E-02 
387	 4.15891087000452E-02 
388	 4.10725152638636E-02 
389	 4.08475839998232E-02 
390	 4.09882493799397E-02 
391	 4.06262299721483E-02 
392	 4.07783324642857E-02 
393	 4.12155802601618E-02 
394	 4.14570573388655E-02 
395	 4.09801612967197E-02 
396	 4.11905941134102E-02 
397	 4.17557994323348E-02 
398	 0.041970066497307 
399	 4.21390641776156E-02 
400	 4.12447456650403E-02 
401	 4.03986208571767E-02 
402	 4.14897295523766E-02 
403	 4.16536906235419E-02 
404	 4.16696973338645E-02 
405	 4.20164880516242E-02 
406	 4.22801325492015E-02 
407	 4.26319063564713E-02 
408	 4.25430714658807E-02 
409	 4.19110068956456E-02 
410	 4.21846997285837E-02 
411	 4.19637640791314E-02 
412	 4.16384368716973E-02 
413	 4.20224673509006E-02 
414	 4.18732712389322E-02 
415	 4.19046003598656E-02 
416	 4.21929057735868E-02 
417	 4.21960973949386E-02 
418	 4.24048995445734E-02 
419	 4.25392163364953E-02 
420	 0.042400376832671 
421	 4.21196077647917E-02 
422	 4.22916018153533E-02 
423	 4.25680741892951E-02 
424	 4.24668857066743E-02 
425	 4.21785943871889E-02 
426	 4.24416718747048E-02 
427	 4.30988206722026E-02 
428	 4.33531443106255E-02 
429	 4.26725986923297E-02 
430	 4.23884648656851E-02 
431	 4.28320173081115E-02 
432	 4.27093921831775E-02 
433	 4.29227922695364E-02 
434	 4.31060506858656E-02 
435	 4.29560155548316E-02 
436	 4.31580436214774E-02 
437	 4.31786312491385E-02 
438	 4.29742401197012E-02 
439	 4.27532725989282E-02 
440	 4.26129899681482E-02 
441	 4.28812309066091E-02 
442	 4.33654331272134E-02 
443	 4.33284914548343E-02 
444	 4.32720843145598E-02 
445	 4.33185789821543E-02 
446	 4.34056389027921E-02 
447	 4.31807421056334E-02 
448	 4.30977014733705E-02 
449	 4.31816691697837E-02 
450	 4.32661126337183E-02 
451	 4.32497750874858E-02 
452	 4.33352782471033E-02 
453	 4.33776209454105E-02 
454	 4.29077783706586E-02 
455	 4.34007411016185E-02 
456	 0.04382873798906 
457	 4.34489576258833E-02 
458	 4.35120171580751E-02 
459	 4.36755150155351E-02 
460	 4.37744801560575E-02 
461	 4.37339356011016E-02 
462	 4.37329577584868E-02 
463	 4.37371095702668E-02 
464	 4.37031106360299E-02 
465	 4.36029513076833E-02 
466	 4.36583720958488E-02 
467	 4.36413066536421E-02 
468	 4.34945242141597E-02 
469	 4.38538688030571E-02 
470	 4.42141445303626E-02 
471	 4.41255807989896E-02 
472	 0.043448822708064 
473	 4.36420511840242E-02 
474	 0.043812355168002 
475	 0.04368755240004 
476	 4.38139496985368E-02 
477	 4.41016639262072E-02 
478	 0.04408729858539 
479	 4.36813363603481E-02 
480	 4.39865505614053E-02 
481	 4.40613433888298E-02 
482	 4.40716399517454E-02 
483	 0.044495757537897 
484	 4.43359918800047E-02 
485	 4.41457768761723E-02 
486	 4.42027253913386E-02 
487	 4.42710627450852E-02 
488	 4.42205516890553E-02 
489	 4.42814374708467E-02 
490	 4.45798112324663E-02 
491	 4.47794842742006E-02 
492	 4.45782355952089E-02 
493	 4.43229677365141E-02 
494	 4.45782638369209E-02 
495	 4.48038625539991E-02 
496	 0.044796085309049 
497	 4.47031876814469E-02 
498	 4.50811897776963E-02 
499	 4.50362379711087E-02 
500	 4.49427800227038E-02 
501	 4.52376138961626E-02 
502	 4.53970750929186E-02 
503	 4.53842165292293E-02 
504	 4.52482575124947E-02 
505	 4.51229561545059E-02 
506	 4.52694962310193E-02 
507	 4.55007976897684E-02 
508	 4.56845922626041E-02 
509	 4.58644653227371E-02 
510	 4.59196986377254E-02 
511	 4.59979190541138E-02 
512	 4.62144815204937E-02 
513	 4.62339446450013E-02 
514	 4.62025282895222E-02 
515	 4.61846399088115E-02 
516	 4.61740505342255E-02 
517	 4.61895346519028E-02 
518	 4.63418491988231E-02 
519	 4.65890352457685E-02 
520	 4.65508948956937E-02 
521	 4.68851031335994E-02 
522	 4.70904019965027E-02 
523	 4.66265752891627E-02 
524	 4.67541784653481E-02 
525	 4.71926292111277E-02 
526	 4.75615000835068E-02 
527	 4.74889097446419E-02 
528	 4.73903707453956E-02 
529	 4.74727527704321E-02 
530	 4.77456922149811E-02 
531	 4.78574852218769E-02 
532	 0.048197086639285 
533	 4.85271681983294E-02 
534	 4.84393237018802E-02 
535	 4.86488823235317E-02 
536	 4.88223648828777E-02 
537	 4.88466277725151E-02 
538	 4.90130567240643E-02 
539	 4.92971488791381E-02 
540	 4.95868616356341E-02 
541	 4.97732726787726E-02 
542	 4.98454724433762E-02 
543	 5.01613416553468E-02 
544	 5.05781792035231E-02 
545	 5.06817722380222E-02 
546	 0.050996875030799 
547	 0.051381835616942 
548	 5.16555927774781E-02 
549	 5.17084486489069E-02 
550	 5.20209685815463E-02 
551	 5.25619827048191E-02 
552	 5.31065105141515E-02 
553	 5.34909148122941E-02 
554	 5.37467851169096E-02 
555	 5.41149787009483E-02 
556	 5.49762579434635E-02 
557	 5.53039947987096E-02 
558	 5.56559744061468E-02 
559	 5.64509426386847E-02 
560	 5.68199516025494E-02 
561	 5.72426964952108E-02 
562	 5.78570075163762E-02 
563	 5.86297814763311E-02 
564	 5.95554817890607E-02 
565	 6.01259885896571E-02 
566	 0.060345491947836 
567	 6.10109496833257E-02 
568	 6.18854253219697E-02 
569	 6.27075848546926E-02 
570	 6.32874124577709E-02 
571	 6.38506859729115E-02 
572	 0.064688752271755 
573	 6.57080072962034E-02 
574	 6.65162648981213E-02 
575	 6.67871314199288E-02 
576	 6.73200988240579E-02 
577	 6.84581877372211E-02 
578	 6.91559531941964E-02 
579	 0.069620436192073 
580	 0.070222938199607 
581	 7.12671236177757E-02 
582	 7.20873409759262E-02 
583	 7.25191794189189E-02 
584	 7.27844819590269E-02 
585	 7.34961808719382E-02 
586	 7.41972085357888E-02 
587	 7.49065631954723E-02 
588	 7.56444703655179E-02 
589	 7.58355895443731E-02 
590	 7.63732372048606E-02 
591	 0.077077120071004 
592	 7.72303397442374E-02 
593	 7.76433488858655E-02 
594	 7.83419415809947E-02 
595	 7.91036612795611E-02 
596	 7.94397566178952E-02 
597	 7.98338510873348E-02 
598	 8.03310551436506E-02 
599	 8.08431320324552E-02 
600	 8.13779104104626E-02 
601	 8.18329437894288E-02 
602	 0.082160292897842 
603	 8.23662964366831E-02 
604	 8.24915955995902E-02 
605	 8.27511071834607E-02 
606	 8.32039725041831E-02 
607	 8.34455606782028E-02 
608	 8.36091314677647E-02 
609	 8.38332911654466E-02 
610	 8.41942104856889E-02 
611	 8.41679695514598E-02 
612	 8.44570974135861E-02 
613	 8.51478169487426E-02 
614	 8.53078831723238E-02 
615	 8.53317505882787E-02 
616	 0.085424515129517 
617	 8.56686861342504E-02 
618	 8.58578590109345E-02 
619	 0.085872096691637 
620	 8.58993439863342E-02 
621	 8.62893833325775E-02 
622	 8.63964922656741E-02 
623	 8.62856387941061E-02 
624	 8.61620819792721E-02 
625	 8.62898049259158E-02 
626	 8.63335468330436E-02 
627	 8.64691052669707E-02 
628	 8.69108580707844E-02 
629	 8.67470598202665E-02 
630	 8.66941305856745E-02 
631	 8.70134831522754E-02 
632	 8.73289972654846E-02 
633	 8.74936856964312E-02 
634	 8.75376414176831E-02 
635	 8.75689362436908E-02 
636	 8.77552856426621E-02 
637	 0.08796071257974 
638	 8.79912694469789E-02 
639	 8.77213687871796E-02 
640	 0.087916368996072 
641	 8.82140689888858E-02 
642	 8.82950089561331E-02 
643	 0.088149071356142 
644	 8.82302831104588E-02 
645	 8.82036332013003E-02 
646	 8.77490114581568E-02 
647	 8.79780030422514E-02 
648	 8.83939676178853E-02 
649	 8.86042505994982E-02 
650	 0.088472698023007 
651	 8.83282142909394E-02 
652	 8.85367819653269E-02 
653	 8.90338544800987E-02 
654	 0.088743405034098 
655	 8.88313439268007E-02 
656	 8.91449215446791E-02 
657	 8.90292678200477E-02 
658	 8.92288105362666E-02 
659	 8.93183821429608E-02 
660	 8.92688761935615E-02 
661	 8.95091426784922E-02 
662	 8.97530990269216E-02 
663	 8.98856307823608E-02 
664	 8.98518736249611E-02 
665	 8.96526411664427E-02 
666	 0.089507286313459 
667	 8.95912073349047E-02 
668	 8.99733022753205E-02 
669	 9.01074929046845E-02 
670	 9.03730361529263E-02 
671	 9.07763263954323E-02 
672	 0.090519020672887 
673	 9.06955194603317E-02 
674	 9.08792616702241E-02 
675	 9.05171594143284E-02 
676	 9.05501051183343E-02 
677	 9.06411040527811E-02 
678	 9.07140712678321E-02 
679	 9.09209525789664E-02 
680	 9.12287316631551E-02 
681	 9.15551729109935E-02 
682	 9.17497748139041E-02 
683	 9.14721866038703E-02 
684	 9.16128117689792E-02 
685	 9.18522192078526E-02 
686	 9.15808582291243E-02 
687	 9.16390182519638E-02 
688	 9.21281913820264E-02 
689	 9.26669428397717E-02 
690	 0.092700189910051 
691	 9.29549205450931E-02 
692	 9.32184116930378E-02 
693	 0.093372715622043 
694	 0.094056812248212 
695	 9.46058024425171E-02 
696	 9.51396421123714E-02 
697	 0.095940687618839 
698	 9.57372375544811E-02 
699	 9.53834220571561E-02 
700	 9.54849613453661E-02 
701	 9.60437765118855E-02 
702	 9.65873439498068E-02 
703	 9.70217219047832E-02 
704	 9.73692865453722E-02 
705	 9.76186686624864E-02 
706	 9.75164102513079E-02 
707	 9.74929393800734E-02 
708	 9.81655749700718E-02 
709	 9.86093114951133E-02 
710	 9.88235878763645E-02 
711	 9.88460322380211E-02 
712	 9.86270427132599E-02 
713	 9.85576100058561E-02 
714	 9.88372714135169E-02 
715	 9.93033936301567E-02 
716	 9.83883431579937E-02 
717	 9.80243289442635E-02 
718	 9.86288881783318E-02 
719	 9.86263135760964E-02 
720	 9.88310994743267E-02 
721	 9.93638076744164E-02 
722	 9.98154969554798E-02 
723	 9.91868063471753E-02 
724	 9.90020756342818E-02 
725	 9.93369275879636E-02 
726	 9.96279467387446E-02 
727	 9.93205391171273E-02 
728	 9.93616331930811E-02 
729	 9.95503315757216E-02 
730	 9.91256782835714E-02 
731	 9.93161135767963E-02 
732	 9.98230815751756E-02 
733	 0.100262099691398 
734	 0.100437076301346 
735	 0.100683365793388 
736	 0.100808859971637 
737	 0.100660098614208 
738	 0.100735097479362 
739	 0.100785804932747 
740	 0.100889366652209 
741	 0.101265908914345 
742	 0.101661816716995 
743	 0.101696866097442 
744	 0.101483063263468 
745	 0.101818595088875 
746	 0.101773470569853 
747	 0.101717170444388 
748	 0.102034838670518 
749	 0.101953330475498 
750	 0.101909084565484 
751	 0.101981269123231 
752	 0.102026101080176 
753	 0.102017916532384 
754	 0.102061916265005 
755	 0.102164288856506 
756	 0.102181347752587 
757	 0.102145964385927 
758	 0.101972494198415 
759	 0.101538410285301 
760	 0.101164570191862 
761	 0.100941244307998 
762	 0.100990447550606 
763	 0.101123696415071 
764	 0.101439763916701 
765	 0.101682899152941 
766	 0.101892862978854 
767	 0.102277957309275 
768	 0.102625805522988 
769	 0.102653797752468 
770	 0.102391154850856 
771	 0.102619966156638 
772	 0.102761830579222 
773	 0.102756822612065 
774	 0.102748354977722 
775	 0.102878691944178 
776	 0.103075652926364 
777	 0.103235875194503 
778	 0.103249331254889 
779	 0.103082140679381 
780	 0.103089364312985 
781	 0.103351081623981 
782	 0.103364636096344 
783	 0.103335576811807 
784	 0.103254986740604 
785	 0.103119532786972 
786	 0.10314720657507 
787	 0.103344601522079 
788	 0.103280930589637 
789	 0.102493562327363 
790	 0.102672468028205 
791	 0.103064612635109 
792	 0.103243377964528 
793	 0.103518202290415 
794	 0.103322550946944 
795	 0.10304801104106 
796	 0.103045893494564 
797	 0.103047774286695 
798	 0.103135675297901 
799	 0.103207682095762 
800	 0.103177567205658 
801	 0.10335354993308 
802	 0.103486541401279 
803	 0.103430839192435 
804	 0.103211392648201 
805	 0.103291367786317 
806	 0.103549617902665 
807	 0.103785181389293 
808	 0.103786088763386 
809	 0.103171574734251 
810	 0.1029074567782 
811	 0.103637950870231 
812	 0.103775623406307 
813	 0.103143571463354 
814	 0.10234915428508 
815	 0.102418370300557 
816	 0.102788441083427 
817	 0.103123854514699 
818	 0.102989969395985 
819	 0.102227167617131 
820	 0.102416194924224 
821	 0.103135131494126 
822	 0.103697518782826 
823	 0.103302565474338 
824	 0.102964631996696 
825	 0.102613228078248 
826	 0.102338966370341 
827	 0.103291057828246 
828	 0.103606018391958 
829	 0.103558422393264 
830	 0.103906971630348 
831	 0.103700480935 
832	 0.104074152568585 
833	 0.104701196581798 
834	 0.104586898309831 
835	 0.104342986492687 
836	 0.104267540890127 
837	 0.104477835880871 
838	 0.104897689490742 
839	 0.104854961327928 
840	 0.104575103534833 
841	 0.104369851191864 
842	 0.104408138871911 
843	 0.105102004210184 
844	 0.105297542749395 
845	 0.104442368670358 
846	 0.104719997947311 
847	 0.105077197993399 
848	 0.105215910256397 
849	 0.105168910967944 
850	 0.105153443133442 
851	 0.105166735246617 
852	 0.105223666374711 
853	 0.105344313248253 
854	 0.105527544500365 
855	 0.105462145038677 
856	 0.105365664677063 
857	 0.105827230129959 
858	 0.105176464221064 
859	 0.105191092789743 
860	 0.106128394562237 
861	 0.105320455445418 
862	 0.105656548335503 
863	 0.106434066997865 
864	 0.106556445954913 
865	 0.106064623940214 
866	 0.105669134921894 
867	 0.10588701529673 
868	 0.106739095242329 
869	 0.107140144483817 
870	 0.106716314049527 
871	 0.106150457014331 
872	 0.106318060891044 
873	 0.106419263233906 
874	 0.106554173384153 
875	 0.106908577172941 
876	 0.107531654470567 
877	 0.107298596486688 
878	 0.1070067135947 
879	 0.107246555216514 
880	 0.108050320541662 
881	 0.107983429893241 
882	 0.107179753299858 
883	 0.106547510950979 
884	 0.107442404870637 
885	 0.107558516052077 
886	 0.107279345511103 
887	 0.107206613909773 
888	 0.107345214435456 
889	 0.107551029205044 
890	 0.107866394297805 
891	 0.108411965540688 
892	 0.10945165721231 
893	 0.10923627117498 
894	 0.1078106403048 
895	 0.10625201016343 
896	 0.106374938378905 
897	 0.10743223424483 
898	 0.10783932924679 
899	 0.106650074564708 
900	 0.107071303039916 
901	 0.10823750712351 
902	 0.108910873460655 
903	 0.108304709223908 
904	 0.107628042078955 
905	 0.108088164207433 
906	 0.108595922042113 
907	 0.10750389765746 
908	 0.108684422390579 
909	 0.109639626714146 
910	 0.108701200871297 
911	 0.106303034425174 
912	 0.10744469433162 
913	 0.108759623943891 
914	 0.108641312529913 
915	 0.108074733732082 
916	 0.110570021081705 
917	 0.109727920036147 
918	 0.106563089411588 
919	 0.10762975176463 
920	 0.108398472211554 
921	 0.109116466329438 
922	 0.10900574979616 
923	 0.106495994848648 
924	 0.108935282266747 
925	 0.110033818075098 
926	 0.10804950926324 
927	 0.110792358214789 
928	 0.111257179502719 
929	 0.110482650610318 
930	 0.109606812195218 
931	 0.106308385817024 
932	 0.101189800579778 
933	 0.102291449297833 
934	 0.109299225827984 
935	 0.103505132599709 
936	 0.114977294518341 
937	 0.117756590154769 
938	 0.103331891772061 
939	 9.09058167942795E-02 
940	 0.106430102166668 
941	 0.118971099362181 
942	 0.115445837888128 
943	 0.111272912490346 
944	 0.105466699894453 
945	 0.100173287093392 
946	 9.85713372465182E-02 
947	 0.102636963387191 
948	 0.107817885882652 
949	 0.113904922607027 
950	 0.119787032435951 
951	 0.121998210128937 
952	 0.108235867467671 
953	 0.101326274228364 
954	 0.106763952166907 
955	 0.110068928094194 
956	 0.118056750457585 
957	 0.118835820874361 
958	 0.114471930326792 
959	 0.116689755876406 
960	 0.1134352002955 
961	 0.111506554667115 
962	 0.110114993111877 
963	 0.10536501392191 
964	 0.113632829863429 
965	 0.12074415720724 
966	 0.119506688806134 
967	 0.111170952645464 
968	 0.108403321157679 
969	 0.112263443470457 
970	 0.115725090610227 
971	 0.112016240265815 
972	 0.115241820307788 
973	 0.114391738270382 
974	 0.110337057168363 
975	 0.110154974476959 
976	 0.114455797558624 
977	 0.115091347684858 
978	 0.11482317414986 
979	 0.117113144272965 
980	 0.111090211591434 
981	 0.113411431689635 
982	 0.119603731310431 
983	 0.121900043833544 
984	 0.122147549341543 
985	 0.116756834881464 
986	 0.115043975430176 
987	 0.119639765856072 
988	 0.116217959339107 
989	 0.116790081139836 
990	 0.114629698430062 
991	 0.110745403309145 
992	 0.120007532625571 
993	 0.119085211521038 
994	 0.116133590118873 
995	 0.118724044079307 
996	 0.125780110949431 
997	 0.123024445430918 
998	 0.119865535147224 
999	 0.119800410214599 
1000	 0.120043759813717 
1001	 0.124061669437431 
1002	 0.12505861601641 
1003	 0.128639905189717 
1004	 0.129906355069555 
1005	 0.133333343397962 
1006	 0.134273622339715 
1007	 0.1315956596754 
1008	 0.131747106624426 
1009	 0.133784702416998 
1010	 0.133246939969142 
1011	 0.133271227893664 
1012	 0.133231036542157 
1013	 0.130590285606963 
1014	 0.12956130703453 
1015	 0.129907063562061 
1016	 0.130759170736112 
1017	 0.130828861511737 
1018	 0.131421960023721 
1019	 0.131716509472694 
1020	 0.130908194472527 
1021	 0.130323373666786 
1022	 0.12946590538509 
1023	 0.129422182095618 
1024	 0.129411205320151 
1025	 0.130425154970739 
1026	 0.131461704289607 
1027	 0.133741112876001 
1028	 0.13374878967862 
1029	 0.133183406625141 
1030	 0.133472626787058 
1031	 0.130881141062996 
1032	 0.130537269450274 
1033	 0.132234686911077 
1034	 0.131411594300124 
1035	 0.129889827039063 
1036	 0.130101247300878 
1037	 0.129606902431413 
1038	 0.128176363713743 
1039	 0.132952839320729 
1040	 0.137155318819876 
1041	 0.137372198965821 
1042	 0.138223684320264 
1043	 0.138134992269306 
1044	 0.135706964562131 
1045	 0.133976576748817 
1046	 0.134431343857093 
1047	 0.134259157377675 
1048	 0.133531940329457 
1049	 0.133362482527104 
1050	 0.133762581792376 
1051	 0.133858972434534 
1052	 0.133195874909552 
1053	 0.13540910197207 
1054	 0.13639782135331 
1055	 0.138666700132233 
1056	 0.141002359353379 
1057	 0.139250454259681 
1058	 0.137154656480532 
1059	 0.136796034256731 
1060	 0.136093174468959 
1061	 0.135942942124595 
1062	 0.139524541228468 
1063	 0.140709469081802 
1064	 0.140090295255169 
1065	 0.137695511515217 
1066	 0.138477921267129 
1067	 0.137049263511256 
1068	 0.134901181615796 
1069	 0.137496909398059 
1070	 0.137266495231071 
1071	 0.135075975327486 
1072	 0.135363309682502 
1073	 0.13577414874928 
1074	 0.136924499873102 
1075	 0.13663643163627 
1076	 0.136735983345337 
1077	 0.137848344946441 
1078	 0.137016253343561 
1079	 0.137148711977251 
1080	 0.138255194637377 
1081	 0.139568451451223 
1082	 0.138653818206036 
1083	 0.138296448176265 
1084	 0.136042503291755 
1085	 0.132934721187844 
1086	 0.132031605818009 
1087	 0.131698574134744 
1088	 0.132749889528779 
1089	 0.135257578439942 
1090	 0.137434472960547 
1091	 0.137338851172706 
1092	 0.13662184495264 
1093	 0.135531242359814 
1094	 0.135223039819038 
1095	 0.13453195154171 
1096	 0.134212168484234 
1097	 0.13360101221442 
1098	 0.134043739961577 
1099	 0.131715781480545 
1100	 0.129580397589001 
1101	 0.129965251034926 
1102	 0.13133008101639 
1103	 0.133060515820387 
1104	 0.134437243486771 
1105	 0.136371626823801 
1106	 0.13502304793713 
1107	 0.133287829383686 
1108	 0.135268750413583 
1109	 0.135008112231406 
1110	 0.135533589796666 
1111	 0.13943287667496 
1112	 0.141800278780971 
1113	 0.142379517581959 
1114	 0.14323895744241 
1115	 0.143852745124018 
1116	 0.137698224072871 
1117	 0.144800435065138 
1118	 0.152449498061653 
1119	 0.162188116034814 
1120	 0.19333760051891 
1121	 0.205895452807972 
1122	 0.238398961805536 
1123	 0.289132345268798 
1124	 0.306581480838316 
1125	 0.323725940828253 
1126	 0.327912272314463 
1127	 0.327085830669049 
1128	 0.356270195757569 
1129	 0.336363164582902 
1130	 0.293847866969425 
1131	 0.227644626730491 
1132	 0.197631273489421 
1133	 0.167090596185925 
1134	 0.150193167242866 
1135	 0.173914050681738 
1136	 0.169189269572595 
1137	 0.158035084456789 
1138	 0.170603046481586 
1139	 0.177663684204531 
1140	 0.194708201289008 
1141	 0.202840938885428 
1142	 0.201724876495853 
1143	 0.190728220255652 
1144	 0.18302451944789 
1145	 0.159889213287772 
1146	 0.152852291038913 
1147	 0.158823929758235 
1148	 0.149346434359142 
1149	 0.138084041777412 
1150	 0.140185222270438 
1151	 0.143691640457636 
1152	 0.151177363476607 
1153	 0.162427633857143 
1154	 0.169996334030737 
1155	 0.173249084287097 
1156	 0.167848239949648 
1157	 0.162475427313975 
1158	 0.161610157946539 
1159	 0.160333996966891 
1160	 0.158463344490417 
1161	 0.157184301672946 
1162	 0.159733268618191 
1163	 0.158112133993547 
1164	 0.154793458908355 
1165	 0.150316297552061 
1166	 0.147455088326788 
1167	 0.145837167793412 
1168	 0.147697150341675 
1169	 0.150645947651382 
1170	 0.154700198059717 
1171	 0.153765877498776 
1172	 0.151336530804814 
1173	 0.15097624857776 
1174	 0.148936885906506 
1175	 0.147542812301948 
1176	 0.147144608284427 
1177	 0.147690921698327 
1178	 0.148441735207572 
1179	 0.149867877899363 
1180	 0.150643918593636 
1181	 0.150890018735356 
1182	 0.151197627364876 
1183	 0.151148579769058 
1184	 0.153776410772833 
1185	 0.152911698975333 
1186	 0.150644328958333 
1187	 0.148860831458565 
1188	 0.145461456665429 
1189	 0.145966476179792 
1190	 0.150569842269506 
1191	 0.151999123214694 
1192	 0.153613355989455 
1193	 0.154465185628581 
1194	 0.153829946602621 
1195	 0.153090198518954 
1196	 0.151973201396291 
1197	 0.150883769932095 
1198	 0.147419619198225 
1199	 0.147362149947569 
1200	 0.151296969852395 
1201	 0.152371068215561 
1202	 0.153298554019514 
1203	 0.154718739389804 
1204	 0.154135830539317 
1205	 0.152599086258952 
1206	 0.155104958414131 
1207	 0.156601214137903 
1208	 0.156731639436136 
1209	 0.15612041259701 
1210	 0.154640077224939 
1211	 0.151068117284545 
1212	 0.149813092780642 
1213	 0.148837344430485 
1214	 0.148537668880472 
1215	 0.14980116759545 
1216	 0.149510813920646 
1217	 0.148104508595868 
1218	 0.147428462296427 
1219	 0.146873646948688 
1220	 0.14649531458953 
1221	 0.145261384571501 
1222	 0.147067540307325 
1223	 0.149000815908977 
1224	 0.150223534211189 
1225	 0.152153646765292 
1226	 0.15351551121227 
1227	 0.15488785985206 
1228	 0.154892582840211 
1229	 0.15397013112177 
1230	 0.151619519399608 
1231	 0.151489927028627 
1232	 0.1511277447702 
1233	 0.150769876650146 
1234	 0.152207196992902 
1235	 0.152507113556851 
1236	 0.151830548098929 
1237	 0.151069892826354 
1238	 0.149825335249007 
1239	 0.149686756073917 
1240	 0.149929339374457 
1241	 0.149543428630872 
1242	 0.150532727249549 
1243	 0.149478456249083 
1244	 0.148394708666877 
1245	 0.146696170854734 
1246	 0.144965598805518 
1247	 0.14649395858724 
1248	 0.147505385280213 
1249	 0.148662097691343 
1250	 0.150672451512754 
1251	 0.154430829764759 
1252	 0.156331863183342 
1253	 0.15903017567831 
1254	 0.159056584477457 
1255	 0.156530486582175 
1256	 0.15516788979416 
1257	 0.15130863461882 
1258	 0.150356264085196 
1259	 0.15175587122382 
1260	 0.152271867523326 
1261	 0.15462919767536 
1262	 0.155504678909217 
1263	 0.155300944421691 
1264	 0.154751223572018 
1265	 0.154812757651476 
1266	 0.154164348259577 
1267	 0.153489400747793 
1268	 0.153351122748775 
1269	 0.153228079741714 
1270	 0.152550392439345 
1271	 0.152788430598853 
1272	 0.153743674028774 
1273	 0.154650804725696 
1274	 0.156352156168217 
1275	 0.156805119242254 
1276	 0.156666397753724 
1277	 0.1571273007131 
1278	 0.157156272829387 
1279	 0.157498464268855 
1280	 0.158921352588919 
1281	 0.159072513372143 
1282	 0.157501458181709 
1283	 0.15726740769079 
1284	 0.156796083572133 
1285	 0.158040333529425 
1286	 0.157985698458463 
1287	 0.15953922442507 
1288	 0.160545575001661 
1289	 0.159886585360318 
1290	 0.160519081498308 
1291	 0.162411779053614 
1292	 0.162971399394791 
1293	 0.163185494167076 
1294	 0.163156025421895 
1295	 0.162427876934245 
1296	 0.161407399124916 
1297	 0.159566176401282 
1298	 0.158736820858473 
1299	 0.158001802314712 
1300	 0.157616947510006 
1301	 0.157265291561355 
1302	 0.158176218209645 
1303	 0.160819124822827 
1304	 0.162046448528641 
1305	 0.164969845754613 
1306	 0.166132818549802 
1307	 0.165031604969412 
1308	 0.162573295948275 
1309	 0.164011432090847 
1310	 0.163636225112469 
1311	 0.16507386097339 
1312	 0.168818242780182 
1313	 0.168650819542591 
1314	 0.165439056664077 
1315	 0.164748222170733 
1316	 0.163529725938174 
1317	 0.161706148155084 
1318	 0.159938367584026 
1319	 0.160517530408212 
1320	 0.161087289653006 
1321	 0.161742362518328 
1322	 0.165783326109411 
1323	 0.167949132567506 
1324	 0.167998129604087 
1325	 0.168936141608976 
1326	 0.17066112939895 
1327	 0.173124542410081 
1328	 0.17456670956128 
1329	 0.178107031178183 
1330	 0.189734364029211 
1331	 0.195513938173436 
1332	 0.199001468645038 
1333	 0.198077898954979 
1334	 0.196303508284007 
1335	 0.18535058193615 
1336	 0.180840078301254 
1337	 0.179091950839237 
1338	 0.177412918486965 
1339	 0.177119672174775 
1340	 0.175181412076444 
1341	 0.170277609556917 
1342	 0.173128484976678 
1343	 0.176050084987003 
1344	 0.189301889232269 
1345	 0.236031864481717 
1346	 0.275123988114765 
1347	 0.347423800391177 
1348	 0.416845987726481 
1349	 0.425541793363214 
1350	 0.557332036071956 
1351	 0.797568835523459 
1352	 1.88278414274166 
1353	 20.1999260647791 
1354	-5.44881326825321 
1355	-15.6407617318721 
1356	-68.9387767441978 
1357	 3.98777613267309 
1358	 2.66434145550773 
1359	 2.57379405175561 
1360	 3.029325993696 
1361	 4.88805691128802 
1362	 76.034814479134 
1363	 18.1242826735733 
1364	 4.20368231497433 
1365	 6.56544765622912 
1366	 7.93155586846363 
1367	 49.0636911947608 
1368	-2.45271661358427 
1369	-2.2399393972206 
1370	-5.07756206327744 
1371	-5.96280091803149 
1372	-3.73785714342511 
1373	-9.07526017552093 
1374	 2.75244768628005 
1375	 1.89422855747745 
1376	 1.22730020598063 
1377	 1.27734561968707 
1378	-1.93998234940726 
1379	-0.907050518581027 
1380	-1.09960839545928 
1381	-1.34616267542306 
1382	-7.70297920078426 
1383	 7.7379195583679 
1384	 3.79214836169579 
1385	 2.52542839342685 
1386	 1.49029411173714 
1387	 1.25932101206568 
1388	 1.65552089198048 
1389	 1.83820144757005 
1390	 2.19197966140082 
1391	 7.39205278862763 
1392	 6.83318570774884 
1393	 2.23290352849766 
1394	 2.03429874617363 
1395	 2.0137005193044 
1396	 1.8825925493993 
1397	 2.21985780522405 
1398	 2.12822245386461 
1399	 1.15366847650474 
1400	 0.51397564826931 
1401	 0.459720514149644 
1402	 0.551390485565528 
1403	 0.808233814797068 
1404	 0.978754240780425 
1405	 1.78858897464594 
1406	 6.2374265239227 
1407	-7.17769452134993 
1408	-3.87791469977047 
1409	-5.27466958843488 
1410	-6.58087362665758 
1411	-7.66402467977421 
1412	-33.8343069666871 
1413	 2.27436906963495 
1414	 1.24879944888952 
1415	 0.534006464291447 
1416	 0.118416997646744 
1417	-0.905882332133964 
1418	-2.4855823578784 
1419	 8.8774714977324 
1420	 4.14141733620522 
1421	 1.9130221184056 
1422	 1.20816896311758 
1423	 1.08097233557387 
1424	 0.76551180551149 
1425	 0.725216653289947 
1426	 0.879521258438666 
1427	 0.912942244676146 
1428	 0.78545067710675 
1429	 0.862937895044353 
1430	 1.02605680753003 
1431	 1.06147358222872 
1432	 1.13908602260969 
1433	 1.12073596086888 
1434	 0.966978153502077 
1435	 0.950792017133517 
1436	 1.00738643497334 
1437	 0.965522633667954 
1438	 1.4078370869466 
1439	 0.866318173569834 
1440	 0.142754279072009 
1441	 1.57487228485442E-02 
1442	-2.73417021897806E-02 
1443	 4.13760382756527E-03 
1444	 0.135960258096709 
1445	 0.277169932707895 
1446	 0.699147612537286 
1447	 0.745055432304282 
1448	 0.487208104461461 
1449	 0.425280206022327 
1450	 0.295111162248802 
1451	 0.257048825284727 
1452	 0.322270763976636 
1453	 0.325385579696402 
1454	 0.334948929934301 
1455	 0.284867177216859 
1456	 0.243917249589065 
1457	 0.222125981041101 
1458	 0.18660966360106 
1459	 0.132584773223477 
1460	 0.135803574369718 
1461	 0.14325907663411 
1462	 0.183515207593492 
1463	 0.306906450572156 
1464	 0.342303078703028 
1465	 0.372139997803698 
1466	 0.377884108265024 
1467	 0.291171443008076 
1468	 0.292567492362454 
1469	 0.33432238788666 
1470	 0.343615500340295 
1471	 0.408672938900535 
1472	 0.365135514188052 
1473	 0.238615798417492 
1474	 0.207423648290517 
1475	 0.15262727669347 
1476	 0.150482120682176 
1477	 0.213417931639993 
1478	 0.248076256688242 
1479	 0.278510192400742 
1480	 0.305871422897203 
1481	 0.358116689023583 
1482	 0.364209882657539 
1483	 0.354724582008849 
1484	 0.33132730263988 
1485	 0.273663583954033 
1486	 0.247537181624531 
1487	 0.223280133788323 
1488	 0.218989022430045 
1489	 0.236331734764519 
1490	 0.236467054160613 
1491	 0.239777553016074 
1492	 0.236434911611544 
1493	 0.225196555127927 
1494	 0.21694169071254 
1495	 0.20547176418119 
1496	 0.200444380993764 
1497	 0.202599717265371 
1498	 0.197605397121581 
1499	 0.188874906381984 
1500	 0.184406569281028 
1501	 0.178214767184154 
1502	 0.17635589314758 
1503	 0.185312653828626 
1504	 0.191405445556623 
1505	 0.193054503928031 
1506	 0.194277667005853 
1507	 0.190048375070871 
1508	 0.179158599872076 
1509	 0.177318063768674 
1510	 0.176283496792826 
1511	 0.17559969947907 
1512	 0.178918705650152 
1513	 0.180355840254772 
1514	 0.180226876871987 
1515	 0.179979853577795 
1516	 0.180868064791887 
1517	 0.180967046903546 
1518	 0.178165866270402 
1519	 0.179710313051478 
1520	 0.185484855303623 
1521	 0.185950417251813 
1522	 0.186225557478361 
1523	 0.184250189435605 
1524	 0.177300864567718 
1525	 0.175441811431654 
1526	 0.174695753877854 
1527	 0.174862435430642 
1528	 0.178194785706099 
1529	 0.178534975042253 
1530	 0.177399119992642 
1531	 0.177865281163549 
1532	 0.178943833912499 
1533	 0.178133860060171 
1534	 0.17625108054515 
1535	 0.176312998931602 
1536	 0.176511681404069 
1537	 0.175850431193589 
1538	 0.177000014918658 
1539	 0.176668592603883 
1540	 0.172087070026851 
1541	 0.171949823870018 
1542	 0.175584243167963 
1543	 0.176545703284233 
1544	 0.178888461545161 
1545	 0.178893930031818 
1546	 0.174513826252543 
1547	 0.173935867401658 
1548	 0.175845169840593 
1549	 0.175642039278271 
1550	 0.17471375328588 
1551	 0.175596728551436 
1552	 0.17542021128989 
1553	 0.176690136028538 
1554	 0.183530982501371 
1555	 0.185540351571885 
1556	 0.183692315974637 
1557	 0.183479845088315 
1558	 0.181156230306746 
1559	 0.18005655087409 
1560	 0.180502878033159 
1561	 0.181517052907332 
1562	 0.183699732059842 
1563	 0.184897028618361 
1564	 0.185812349457928 
1565	 0.186461206784521 
1566	 0.182357248866306 
1567	 0.179395948162643 
1568	 0.180564356680111 
1569	 0.17988394754862 
1570	 0.179109512269372 
1571	 0.178049754173614 
1572	 0.17459044889275 
1573	 0.171388302773145 
1574	 0.172034539486648 
1575	 0.173069030270421 
1576	 0.177281773971715 
1577	 0.182646756295326 
1578	 0.180219098359399 
1579	 0.180466245459731 
1580	 0.179233118118145 
1581	 0.173579296321913 
1582	 0.175931397115647 
1583	 0.179823242597058 
1584	 0.18307365256118 
1585	 0.186888075274424 
1586	 0.185640106371111 
1587	 0.181763370884627 
1588	 0.177794411064797 
1589	 0.168399772616615 
1590	 0.166880467496782 
1591	 0.16924928843283 
1592	 0.170728559730258 
1593	 0.175332515983425 
1594	 0.177158058562554 
1595	 0.176593162353348 
1596	 0.178717400311566 
1597	 0.182954924843484 
1598	 0.183920667067511 
1599	 0.184408850786523 
1600	 0.186246437010966 
1601	 0.187140621414564 
1602	 0.187402260675362 
1603	 0.188877792240629 
1604	 0.189001110421123 
1605	 0.185856998373689 
1606	 0.184641420611118 
1607	 0.185755915866024 
1608	 0.18484097026297 
1609	 0.182595291460211 
1610	 0.181595543070998 
1611	 0.179859563827919 
1612	 0.179803348613251 
1613	 0.181193534352594 
1614	 0.181836774588503 
1615	 0.183394427066075 
1616	 0.184643253592547 
1617	 0.184631874511229 
1618	 0.185905845596254 
1619	 0.18890829188401 
1620	 0.18915213331099 
1621	 0.188426033126815 
1622	 0.189263344945714 
1623	 0.190126685403959 
1624	 0.188762427518431 
1625	 0.18706746790386 
1626	 0.185893496912107 
1627	 0.182009587561945 
1628	 0.180561538876276 
1629	 0.181327306860804 
1630	 0.182956234905912 
1631	 0.185504240325152 
1632	 0.187271411392243 
1633	 0.191400996020504 
1634	 0.191759554955995 
1635	 0.188269269284825 
1636	 0.188196149778087 
1637	 0.187781616822541 
1638	 0.188610162729569 
1639	 0.192775040313264 
1640	 0.192861353766388 
1641	 0.191776248368606 
1642	 0.190352694265605 
1643	 0.186150860001744 
1644	 0.18473367055435 
1645	 0.183678883055907 
1646	 0.18447724794806 
1647	 0.186762287096648 
1648	 0.188480739461854 
1649	 0.193065312069108 
1650	 0.193121845118215 
1651	 0.191350276961229 
1652	 0.189593557970579 
1653	 0.183499814494474 
1654	 0.182704800214897 
1655	 0.18443036071641 
1656	 0.187169655291145 
1657	 0.194140660688043 
1658	 0.195989114069271 
1659	 0.19493550945453 
1660	 0.195002471944439 
1661	 0.194657551589364 
1662	 0.18806243603702 
1663	 0.187787696416818 
1664	 0.18563574799118 
1665	 0.179504772187453 
1666	 0.178462835840932 
1667	 0.180248792528712 
1668	 0.182412736270869 
1669	 0.187113564941302 
1670	 0.191301134226877 
1671	 0.190446365861813 
1672	 0.186710778761914 
1673	 0.182768497174922 
1674	 0.180922261657605 
1675	 0.182963978376935 
1676	 0.186595857437596 
1677	 0.185174206796831 
1678	 0.180957455455351 
1679	 0.1773578953749 
1680	 0.171652816392945 
1681	 0.172212268982433 
1682	 0.176273141727917 
1683	 0.175885442479594 
1684	 0.179713756708828 
1685	 0.180666077068928 
1686	 0.173204933531224 
1687	 0.17016926859341 
1688	 0.168037258365533 
1689	 0.164903238619278 
1690	 0.168967907432453 
1691	 0.174626007088211 
1692	 0.177641085138869 
1693	 0.178033355147351 
1694	 0.177284213382147 
1695	 0.178460193139076 
1696	 0.178676730594083 
1697	 0.181524635952546 
1698	 0.183595633300091 
1699	 0.179491725182801 
1700	 0.176729582631542 
1701	 0.173082361152946 
1702	 0.169482881433214 
1703	 0.173309176177499 
1704	 0.179368487800417 
1705	 0.181951690277651 
1706	 0.186217485393838 
1707	 0.189073039256569 
1708	 0.182724968675715 
1709	 0.178690514166618 
1710	 0.175776341997461 
1711	 0.173858928349172 
1712	 0.181117854573834 
1713	 0.184669523650526 
1714	 0.18295497468334 
1715	 0.180200841861304 
1716	 0.17367756661104 
1717	 0.17283442039779 
1718	 0.182949894674473 
1719	 0.18640660220614 
1720	 0.186519079413809 
1721	 0.183286877390869 
1722	 0.166507338820586 
1723	 0.163099046544196 
1724	 0.167208751690517 
1725	 0.168492803889397 
1726	 0.174729966561472 
1727	 0.176376401938485 
1728	 0.175045322158316 
1729	 0.171896783992852 
1730	 0.168495588781995 
1731	 0.165132248785744 
1732	 0.153956860923958 
1733	 0.154718848362045 
1734	 0.163440105440567 
1735	 0.167951193485414 
1736	 0.180754532877072 
1737	 0.186582520383577 
1738	 0.184720678997167 
1739	 0.180593974418108 
1740	 0.180256623618573 
1741	 0.179501235114501 
1742	 0.18471009687741 
1743	 0.1960935776551 
1744	 0.194963635067273 
1745	 0.183591488616188 
1746	 0.172557171620439 
1747	 0.171083432112796 
1748	 0.177731868657825 
1749	 0.176571485077527 
1750	 0.186567648497128 
1751	 0.19645662125388 
1752	 0.192394394326941 
1753	 0.201577597806057 
1754	 0.200026994627214 
1755	 0.1846746264649 
1756	 0.177032046261243 
1757	 0.169877098744061 
1758	 0.165573260011556 
1759	 0.165586722578626 
1760	 0.165001272756882 
1761	 0.162426764578244 
1762	 0.167943299708542 
1763	 0.17293564582236 
1764	 0.17340773565284 
1765	 0.187668821810528 
1766	 0.203526396956321 
1767	 0.196855128007061 
1768	 0.191917988510665 
1769	 0.182849270324979 
1770	 0.151102295239029 
1771	 0.147475020240083 
1772	 0.15469154677163 
1773	 0.155530864607875 
1774	 0.173868271711316 
1775	 0.186328191290076 
1776	 0.191587585558855 
1777	 0.196721434262324 
1778	 0.199821012022256 
1779	 0.209761322006915 
1780	 0.204701923437638 
1781	 0.181730096226639 
1782	 0.187944444494405 
1783	 0.208741499038873 
1784	 0.227505816646663 
1785	 0.234150410521454 
1786	 0.217327918108302 
1787	 0.201307896075626 
1788	 0.198011515669025 
1789	 0.215365063325335 
1790	 0.246333579858665 
1791	 0.223479132636446 
1792	 0.159115578972724 
1793	 0.124859427938774 
1794	 0.201815699907715 
1795	 0.433169872201403 
1796	 0.579329984744459 
1797	 0.694473044739398 
1798	 0.735481443812921 
1799	 0.551142798374196 
1800	 0.837562961041899 
1801	 1.29353739235597 
1802	 1.2482358644977 
1803	 0.949321203268287 
1804	 0.911350181655534 
1805	 0.969231190970807 
1806	 1.03908518874416 
1807	 1.18323484286376 
1808	 1.57616897354962 
1809	 1.95811055418781 
1810	 2.50006924065041 
1811	 2.77998342757172 
1812	 2.96014795314513 
1813	 2.85269978739476 
1814	 2.11609259731269 
1815	 1.92985584965943 
1816	 1.59065968184787 
1817	 1.75321227665689 
1818	 1.90826670957063 
1819	 2.74041697905597 
1820	 3.70948838837838 
1821	 10.724643989459 
1822	 13.8192048090716 
1823	 9.76790685876442 
1824	 4.83972042701125 
1825	 2.12000221261666 
1826	 1.33366556750509 
1827	 1.23427392961208 
1828	 1.30892983013908 
1829	 1.19846416881899 
1830	 1.29512518842989 
1831	 1.23499408307636 
1832	 0.924720317812754 
1833	 0.843540992704526 
1834	 0.78979426050097 
1835	 0.792514700992001 
1836	 0.850514403230883 
1837	 1.10225296962751 
1838	 1.14252347182429 
1839	 1.14788340615473 
1840	 1.17979124806173 
1841	 1.12901412873925 
1842	 1.00569621775647 
1843	 0.857289408698176 
1844	 0.788615379521064 
1845	 0.604334591754329 
1846	 0.529875549345584 
1847	 0.525048025515059 
1848	 0.697282033010373 
1849	 0.792396852489602 
1850	 1.04846342194187 
1851	 1.07563073466144 
1852	 0.84815698346789 
1853	 0.784922912773017 
1854	 0.520983652005063 
1855	 0.501408781424687 
1856	 0.599391868407042 
1857	 0.878447462885437 
1858	 1.07262657724193 
1859	 1.45417768004247 
1860	 1.74279817068845 
1861	 2.3097279322034 
1862	 2.76182701699511 
1863	 3.17585146474361 
1864	 3.40867764745911 
1865	 2.78004299232059 
1866	 2.49048263237836 
1867	 2.25195088718708 
1868	 1.88580793612917 
1869	 1.93363209295186 
1870	 2.39659218833135 
1871	 2.44891139110723 
1872	 3.01828276784937 
1873	 2.81152843518363 
1874	 1.641249524931 
1875	 1.34425822741533 
1876	 1.02224418796926 
1877	 0.823011331021503 
1878	 0.886472266397681 
1879	 1.36818944412362 
1880	 1.53774761243105 
1881	 1.70558679971836 
1882	 1.85857733966804 
1883	 2.3149674241762 
1884	 2.20386477044213 
1885	 1.53486805636587 
1886	 1.45700938891559 
1887	 1.56911121641778 
1888	 1.35312196234329 
1889	 1.17974698187439 
1890	 1.15696544407144 
1891	 1.13271029893439 
1892	 0.991162667285802 
1893	 0.942352409281824 
1894	 1.00831179539242 
1895	 1.03712245617648 
1896	 0.937763210875296 
1897	 0.936591620814483 
1898	 1.02152664317468 
1899	 1.28959666128527 
1900	 1.56544037719687 
1901	 2.2778961278869 
1902	 2.30355458097832 
1903	 1.95567291218833 
1904	 1.61894789095445 
1905	 1.04250201414967 
1906	 0.815931705991125 
1907	 0.631555017035047 
1908	 0.488536277737744 
1909	 0.50967770520759 
1910	 0.581844701318316 
1911	 0.616985786320714 
1912	 0.838902237982937 
1913	 0.865974830804965 
1914	 0.72805486896616 
1915	 0.637796218088053 
1916	 0.400742343422294 
1917	 0.378874520677324 
1918	 0.42012308036688 
1919	 0.531756020093482 
1920	 0.840686155974458 
1921	 1.23501613482853 
1922	 1.42629721917187 
1923	 1.41099453872471 
1924	 1.49956392886842 
1925	 1.55764422821929 
1926	 1.5557259691029 
1927	 1.5148011365486 
1928	 1.45374549945637 
1929	 1.41131974855269 
1930	 1.20024193649432 
1931	 0.947460458304294 
1932	 0.822081325906954 
1933	 0.71399572629212 
1934	 0.695807159942034 
1935	 0.716866671922055 
1936	 0.907115856204446 
1937	 1.00343542317614 
1938	 1.06618296136013 
1939	 1.11070799242838 
1940	 1.14113788706615 
1941	 1.10592283092022 
1942	 1.18029059562434 
1943	 1.27702946256972 
1944	 1.28242914391354 
1945	 1.41497982301903 
1946	 1.45082434042991 
1947	 1.36600858161118 
1948	 1.30879881163547 
1949	 1.12750432675301 
1950	 1.1624663912123 
1951	 1.4708514852207 
1952	 1.48501577812999 
1953	 1.49734925181153 
1954	 1.53576909721455 
1955	 1.31364278640268 
1956	 1.17596200010866 
1957	 1.37175990265953 
1958	 1.84206152534283 
1959	 2.02862667952953 
1960	 2.22199127564202 
1961	 2.08747738839284 
1962	 1.32771618214818 
1963	 1.21794722231038 
1964	 1.3215196477885 
1965	 1.25339752859547 
1966	 1.17042281922857 
1967	 1.15692968770624 
1968	 0.918166507648226 
1969	 0.720764857855619 
1970	 0.645494659323407 
1971	 0.635863649588529 
1972	 0.628309777573184 
1973	 0.666313020116237 
1974	 0.697566630303115 
1975	 0.812677354693864 
1976	 0.866493138210897 
1977	 0.903799718091596 
1978	 0.88069189879542 
1979	 0.792176315639254 
1980	 0.706248311582351 
1981	 0.812812836493532 
1982	 0.829350669142648 
1983	 0.786392127814063 
1984	 0.753978171465587 
1985	 0.691624607858473 
1986	 0.528199202355561 
1987	 0.499916877549658 
1988	 0.521714847072928 
1989	 0.55433876771033 
1990	 0.496099732436786 
1991	 0.544950751907318 
1992	 0.558116112195485 
1993	 0.454662188406807 
1994	 0.507051055934133 
1995	 0.553172463467846 
1996	 0.596527884165968 
1997	 0.627694636132875 
1998	 0.68927385007524 
1999	 0.764175562781876 
2000	 0.804714972791599 
2001	 0.816977691826925 
2002	 0.917890540016812 
2003	 0.989516901544746 
2004	 0.944126308063589 
2005	 0.892163390200559 
2006	 0.859323481699915 
2007	 0.910229258415127 
2008	 0.953321645442451 
2009	 0.953545030977017 
2010	 1.00852554489818 
2011	 0.972645594425686 
2012	 0.818795543392084 
2013	 0.784657239763494 
2014	 0.76233725304374 
2015	 0.757400986163583 
2016	 0.812839882048045 
2017	 0.853783864136059 
2018	 0.904019520832924 
2019	 0.997790565044734 
2020	 0.949190860252264 
2021	 0.778974247581671 
2022	 0.699495306336498 
2023	 0.614931114656678 
2024	 0.584127993059712 
2025	 0.609308200575912 
2026	 0.594989621204974 
2027	 0.594089604649928 
2028	 0.541428607160482 
2029	 0.438112108710299 
2030	 0.367560644735081 
2031	 0.308355115493489 
2032	 0.304784430837694 
2033	 0.320814969669518 
2034	 0.339453193120579 
2035	 0.394030213025614 
2036	 0.385482043658792 
2037	 0.400017788301281 
2038	 0.451212516474011 
2039	 0.4468576851581 
2040	 0.396985803462321 
2041	 0.392299812147988 
2042	 0.374264001804429 
2043	 0.368835173249607 
2044	 0.397992198707246 
2045	 0.473035508007506 
2046	 0.526172983190192 
2047	 0.538042548572068 
2048	 0.580265824288517 
2049	 0.526903542379077 
2050	 0.494673360913636 
2051	 0.481249307795205 
2052	 0.446654906853744 
2053	 0.404859868420563 
2054	 0.398627809883568 
2055	 0.397762370943344 
2056	 0.391187390004157 
2057	 0.423554482303279 
2058	 0.423051165727804 
2059	 0.411849866122907 
2060	 0.421092515414742 
2061	 0.41663292065245 
2062	 0.460162750712585 
2063	 0.509474965975189 
2064	 0.52635695668767 
2065	 0.619480136428365 
2066	 0.583820131608507 
2067	 0.593110688192883 
2068	 0.642267678885041 
2069	 0.663040657208202 
2070	 0.651073735357375 
2071	 0.680290703038547 
2072	 0.704025108872467 
2073	 0.638743623017548 
2074	 0.556494660598138 
2075	 0.50921026265672 
2076	 0.466017711331709 
2077	 0.413614378094488 
2078	 0.416285131143122 
2079	 0.416866541172134 
2080	 0.391577470768488 
2081	 0.364898183591129 
2082	 0.350379378312785 
2083	 0.315885477445367 
2084	 0.318756642311407 
2085	 0.347665282093595 
2086	 0.395523560225777 
2087	 0.395044868615374 
2088	 0.366444028276658 
2089	 0.372732272828835 
2090	 0.335447667158515 
2091	 0.340201779643922 
2092	 0.370144597754801 
2093	 0.332978181139994 
2094	 0.342331932552647 
2095	 0.360415598722162 
2096	 0.355731178372371 
2097	 0.364635597510717 
2098	 0.338555047166587 
2099	 0.328606435979988 
2100	 0.304786239327849 
2101	 0.29930691310057 
2102	 0.300289242226729 
2103	 0.332256643721506 
2104	 0.360886288495741 
2105	 0.378343733918943 
2106	 0.397540656579896 
2107	 0.423448488676954 
2108	 0.393860534152103 
2109	 0.364598585318716 
2110	 0.352433012548042 
2111	 0.312772352621041 
2112	 0.307446869380935 
2113	 0.305463128528218 
2114	 0.310917023715407 
2115	 0.336284092217898 
2116	 0.345795414210848 
2117	 0.359691496294401 
2118	 0.368258494524896 
2119	 0.374993693391577 
2120	 0.339517946080546 
2121	 0.314815196101978 
2122	 0.317584219057394 
2123	 0.315615382909019 
2124	 0.321845845698679 
2125	 0.353162660660154 
2126	 0.372462903912974 
2127	 0.390451444353141 
2128	 0.413269556420011 
2129	 0.412152480930102 
2130	 0.389323885990903 
2131	 0.373346639091396 
2132	 0.361863155316276 
2133	 0.359813960748478 
2134	 0.386207661870479 
2135	 0.394010109419576 
2136	 0.396696045664939 
2137	 0.396257662084641 
2138	 0.385598969746395 
2139	 0.367562246216955 
2140	 0.374005068400873 
2141	 0.384911045514102 
2142	 0.38097935562087 
2143	 0.381745925040952 
2144	 0.38576362879912 
2145	 0.371604696462008 
2146	 0.381267613847266 
2147	 0.391567214591685 
2148	 0.375052797346213 
2149	 0.390526906473941 
2150	 0.385159284000522 
2151	 0.365004109059768 
2152	 0.36575377742062 
2153	 0.354272427702162 
2154	 0.34625095768627 
2155	 0.35777961169125 
2156	 0.35541903533497 
2157	 0.346378904152746 
2158	 0.363261819167075 
2159	 0.373776090885805 
2160	 0.372505441181347 
2161	 0.354756844311611 
2162	 0.331749141036009 
2163	 0.290368243810631 
2164	 0.300335265797081 
2165	 0.319573545203128 
2166	 0.30032483614145 
2167	 0.310440077761315 
2168	 0.312665553812507 
2169	 0.321296057699693 
2170	 0.362211429767123 
2171	 0.37443969579111 
2172	 0.38678269144885 
2173	 0.37155465613486 
2174	 0.298742461409644 
2175	 0.283224737303564 
2176	 0.290565453332291 
2177	 0.288494137899845 
2178	 0.298252239974821 
2179	 0.29062966891804 
2180	 0.246087468355211 
2181	 0.216301305508983 
2182	 0.239032169454518 
2183	 0.300132395349293 
2184	 0.338236344800668 
2185	 0.377852107340784 
2186	 0.383623859020914 
2187	 0.370903303074745 
2188	 0.395583345534827 
2189	 0.44275466535398 
2190	 0.479200429050808 
2191	 0.449140433664882 
2192	 0.431198993914057 
2193	 0.399620728372128 
2194	 0.383877143799236 
2195	 0.36253443201229 
2196	 0.364357432961969 
2197	 0.40316229802251 
2198	 0.364325073174907 
2199	 0.36594201592985 
2200	 0.403932099817024 
2201	 0.413617062585701 
2202	 0.466860967368719 
2203	 0.552252505142161 
2204	 0.577694348344195 
2205	 0.577218716180837 
2206	 0.618979726000561 
2207	 0.589209983148964 
2208	 0.529192814458582 
2209	 0.562941129248143 
2210	 0.582129426229213 
2211	 0.566758909725166 
2212	 0.564018980173614 
2213	 0.494708148516711 
2214	 0.41745813448147 
2215	 0.390760489316833 
2216	 0.386989730146532 
2217	 0.386369123366938 
2218	 0.429412996029229 
2219	 0.449076458641569 
2220	 0.477527592485394 
2221	 0.471418188018204 
2222	 0.457167417008266 
2223	 0.391378997702802 
2224	 0.338511002507989 
2225	 0.306682989680702 
2226	 0.304380672862369 
2227	 0.345220430665708 
2228	 0.414697388998368 
2229	 0.451850064308105 
2230	 0.47595502135789 
2231	 0.527582724863813 
2232	 0.549958183842697 
2233	 0.556692486437674 
2234	 0.564363411874661 
2235	 0.525566645806744 
2236	 0.489525401796888 
2237	 0.419261011455614 
2238	 0.375808951858565 
2239	 0.343416637357311 
2240	 0.244033309803682 
2241	 0.209939460281034 
2242	 0.172877046827656 
2243	 0.121099606954242 
2244	 0.118664507064241 
2245	 0.157410225741767 
2246	 0.184202043767233 
2247	 0.256812332608111 
2248	 0.310221471470689 
2249	 0.359687067949027 
2250	 0.389590601873915 
2251	 0.425005212270913 
2252	 0.41798183039685 
2253	 0.393503547330005 
2254	 0.396501716997902 
2255	 0.421106705520907 
2256	 0.396282247436864 
2257	 0.387620523282738 
2258	 0.413426580529589 
2259	 0.376417832195943 
2260	 0.377782803624186 
2261	 0.369329049492025 
2262	 0.330047937173738 
2263	 0.380241261325419 
2264	 0.401152910428122 
2265	 0.379661292185378 
2266	 0.430316942909899 
2267	 0.473295570973431 
2268	 0.503242121880015 
2269	 0.534321821168506 
2270	 0.514011247362962 
2271	 0.486026066085156 
2272	 0.389806738253596 
2273	 0.349807445287722 
2274	 0.327204407398252 
2275	 0.329952851994113 
2276	 0.340069925216041 
2277	 0.378318820169344 
2278	 0.463202404143875 
2279	 0.500881608888126 
2280	 0.551166502995549 
2281	 0.564134282058885 
2282	 0.534543294116946 
2283	 0.534345381478217 
2284	 0.533854223276106 
2285	 0.498837017528873 
2286	 0.512764145325504 
2287	 0.505421132500056 
2288	 0.468080461967457 
2289	 0.427161580514842 
2290	 0.394206996327646 
2291	 0.411184686622209 
2292	 0.416725576972256 
2293	 0.460444701075115 
2294	 0.543136129925569 
2295	 0.498560526719119 
2296	 0.479247635695952 
2297	 0.44953963396298 
2298	 0.383726675097056 
2299	 0.395451322185188 
2300	 0.451346715234984 
2301	 0.499867216697927 
2302	 0.53411335071406 
2303	 0.642020432554911 
2304	 0.704871118659391 
2305	 0.724437911435384 
2306	 0.748738441709502 
2307	 0.652265449600251 
2308	 0.608949007623345 
2309	 0.53499286162823 
2310	 0.504041915352322 
2311	 0.521615258057459 
2312	 0.516287547836213 
2313	 0.488257796097254 
2314	 0.498565113556301 
2315	 0.505741375942168 
2316	 0.539221797992613 
2317	 0.628558365985931 
2318	 0.696151600207092 
2319	 0.806795172858596 
2320	 0.872960650096751 
2321	 0.894032445451708 
2322	 0.894463668635598 
2323	 0.883278296376374 
2324	 0.813670239138549 
2325	 0.637171430891816 
2326	 0.556016710387682 
2327	 0.464382214864898 
2328	 0.412600413059379 
2329	 0.455085540615516 
2330	 0.506985119542022 
2331	 0.568939154717272 
2332	 0.6325380062973 
2333	 0.880469423226234 
2334	 0.868972364810216 
2335	 0.606572299285011 
2336	 0.583098369079798 
2337	 0.510083416224659 
2338	 0.435248668062558 
2339	 0.595126771612823 
2340	 0.698817862379621 
2341	 0.727389404725941 
2342	 0.782167735901311 
2343	 0.749366419555347 
2344	 0.631134439507867 
2345	 0.575505396731512 
2346	 0.453630456562224 
2347	 0.397359389048881 
2348	 0.489460555556961 
2349	 0.538155607141224 
2350	 0.723490996927908 
2351	 0.996726653200461 
2352	 1.04785613885038 
2353	 1.21454199471788 
2354	 1.30718121272196 
2355	 0.964573770096592 
2356	 0.828412055979302 
2357	 0.691634024228293 
2358	 0.563174733580183 
2359	 0.586899416891204 
2360	 0.678282054227466 
2361	 0.735117836920141 
2362	 0.760332906874637 
2363	 0.863620373537651 
2364	 0.94491911942686 
2365	 0.8687884999362 
2366	 0.852324827645917 
2367	 0.74193366138543 
2368	 0.498574964017895 
2369	 0.463095088015555 
2370	 0.55258802850264 
2371	 0.603714216471535 
2372	 0.670706865066427 
2373	 0.740365268834489 
2374	 0.835683088765067 
2375	 0.876753901370639 
2376	 0.909704006742585 
2377	 1.0415653844019 
2378	 1.40774016810366 
2379	 1.50771323458378 
2380	 1.39218818750699 
2381	 1.47683203576712 
2382	 1.31754313611039 
2383	 1.31343345539197 
2384	 2.14924616398657 
2385	 1.96145906085612 
2386	 1.1941778338739 
2387	 0.998073169197542 
2388	 0.708236262791387 
2389	 0.763716126325898 
2390	 1.00515170109115 
2391	 1.13583330072497 
2392	 1.86072084101265 
2393	 1.78500894198325 
2394	 1.17747874977719 
2395	 0.959502144068892 
2396	 0.68299530745294 
2397	 0.570525477981589 
2398	 0.515585733452794 
2399	 0.511595797937892 
2400	 0.509017396415441 
2401	 0.61005737457294 
2402	 1.22182537788909 
2403	 1.59026046393289 
2404	 1.719146281351 
2405	 1.89269812410392 
2406	 1.39166353672249 
2407	 1.44722360352173 
2408	 2.27582364348843 
2409	 2.15124961039621 
2410	 1.7582880811221 
2411	 1.05460364104036 
2412	 0.496024106704343 
2413	 0.411529854445679 
2414	 0.388598258633438 
2415	 0.390659013613689 
2416	 0.51712772984713 
2417	 0.708845027250818 
2418	 1.01823267115099 
2419	 1.20116780100916 
2420	 1.28297148654006 
2421	 1.44378066743462 
2422	 1.54294749252832 
2423	 1.60197989684622 
2424	 1.85991268932973 
2425	 1.98432015685983 
2426	 1.98535737253066 
2427	 1.55162442530294 
2428	 0.982367979984374 
2429	 0.891685193415715 
2430	 0.847414005265435 
2431	 0.852293834068143 
2432	 1.17568130787817 
2433	 1.11651261433357 
2434	 0.774836258315863 
2435	 0.588355306185452 
2436	 0.216410984943386 
2437	 0.219623007060945 
2438	 0.459312451441182 
2439	 0.701011017889875 
2440	 1.31021101828793 
2441	 1.58540366909266 
2442	 1.77615719609579 
2443	 1.56585052268039 
2444	 1.02625604760672 
2445	 0.998725344359792 
2446	 0.953872852915121 
2447	 0.926311050581399 
2448	 1.32381480493238 
2449	 1.34169424896348 
2450	 1.15326674225633 
2451	 1.38978405834959 
2452	 1.73490913792728 
2453	 2.12562997849023 
2454	 1.82307033390554 
2455	 1.79868183212953 
2456	 1.73509418727511 
2457	 1.40471373983729 
2458	 1.48021162188369 
2459	 1.02390173029393 
2460	 0.914625611634199 
2461	 0.88350708899239 
2462	 0.693485932440837 
2463	 0.666279010728496 
2464	 0.662956016485067 
2465	 0.490787737980737 
2466	 0.474658355821764 
2467	 0.637382556271663 
2468	 0.703171167839123 
2469	 0.707715801205525 
2470	 0.824241737351011 
2471	 1.3157541491136 
2472	 1.86827141986413 
2473	 2.44181229350965 
2474	 3.5833456724864 
2475	 4.05530884640964 
2476	 3.12087100715499 
2477	 2.42758685776201 
2478	 1.97985389485106 
2479	 1.03031680402463 
2480	 0.80475093841941 
2481	 0.68944305321581 
2482	 0.609903030155126 
2483	 0.801294880392114 
2484	 1.07823107869621 
2485	 1.5574593870925 
2486	 1.86470231982792 
2487	 2.45947328810855 
2488	 2.33497269668567 
2489	 1.41776636630552 
2490	 1.24228246077302 
2491	 1.05356831115399 
2492	 1.21790910386803 
2493	 1.85111456906584 
2494	 2.3734063028239 
2495	 5.33882055947024 
2496	 5.29161140800584 
2497	 3.18418081216155 
2498	 2.29570344039855 
2499	 1.40164084508517 
2500	 1.41239023359386 
