Wavelength	000000.asd
350	 0.270468010602611 
351	 0.269583591112785 
352	 0.268590979894702 
353	 0.267833286712987 
354	 0.26786267422919 
355	 0.268564524707136 
356	 0.269410885230874 
357	 0.269683791646226 
358	 0.270277278580714 
359	 0.270769263056945 
360	 0.270729405074447 
361	 0.270030787951796 
362	 0.268976689484289 
363	 0.267255274229183 
364	 0.264958341224473 
365	 0.263503722657853 
366	 0.262081075796363 
367	 0.260700157625149 
368	 0.259756496568041 
369	 0.259911537338857 
370	 0.260659249834647 
371	 0.261822322014129 
372	 0.263376306612735 
373	 0.264269175681976 
374	 0.264422133978099 
375	 0.263782724060367 
376	 0.262181743044915 
377	 0.260707312738852 
378	 0.259514039197247 
379	 0.25884946989282 
380	 0.259794445414129 
381	 0.261329247220196 
382	 0.263291598811744 
383	 0.265582245964791 
384	 0.267213177969833 
385	 0.267895364870263 
386	 0.267212381894271 
387	 0.264907645066329 
388	 0.26226040176285 
389	 0.260389662103546 
390	 0.260010367655569 
391	 0.261352232838023 
392	 0.263129042654089 
393	 0.265166315622244 
394	 0.267338129956811 
395	 0.269263358347422 
396	 0.269214380379446 
397	 0.267252646783534 
398	 0.264315455992178 
399	 0.261643547023681 
400	 0.259629564371726 
401	 0.258623274417365 
402	 0.258865334224348 
403	 0.25998842153943 
404	 0.261833916062252 
405	 0.263863398090299 
406	 0.265067550749711 
407	 0.265892367106508 
408	 0.266375935038311 
409	 0.266486666745592 
410	 0.266150905702261 
411	 0.265947190123781 
412	 0.265942381232678 
413	 0.265968985289679 
414	 0.265934673598902 
415	 0.266219558604006 
416	 0.266797609884836 
417	 0.267266454806073 
418	 0.267523877284696 
419	 0.267701028116062 
420	 0.267899748908748 
421	 0.26809406454483 
422	 0.268066724113303 
423	 0.268007351547182 
424	 0.268107561272728 
425	 0.267992469080539 
426	 0.268118322548358 
427	 0.268917355935365 
428	 0.270593594778532 
429	 0.271948772079426 
430	 0.272434571861579 
431	 0.271961114536416 
432	 0.27089441761549 
433	 0.269234461266309 
434	 0.267716977173449 
435	 0.267069799459524 
436	 0.267731416893245 
437	 0.268605622161578 
438	 0.269262995693971 
439	 0.26961189191545 
440	 0.269416126980432 
441	 0.268600927254903 
442	 0.267623256901319 
443	 0.267449218047873 
444	 0.267837195971269 
445	 0.268474658840195 
446	 0.2689959534434 
447	 0.268997396511139 
448	 0.268518828107015 
449	 0.267886715466235 
450	 0.267589119111572 
451	 0.268147187358708 
452	 0.269162863474895 
453	 0.270133221269933 
454	 0.270541723249341 
455	 0.270248301049401 
456	 0.269738558912019 
457	 0.269513102614277 
458	 0.269787642520065 
459	 0.27004802543734 
460	 0.270120441292158 
461	 0.270035629490033 
462	 0.270018555349962 
463	 0.270222731807757 
464	 0.270656862531205 
465	 0.271177671706007 
466	 0.27157881804826 
467	 0.271702230547139 
468	 0.271587740425262 
469	 0.27171756569894 
470	 0.271771023704617 
471	 0.271589653303333 
472	 0.271159381068141 
473	 0.270833145873148 
474	 0.270803655616934 
475	 0.270999304221062 
476	 0.2710919445599 
477	 0.27101666617121 
478	 0.2709300998212 
479	 0.2709935865218 
480	 0.271254770636818 
481	 0.271484934625764 
482	 0.271733805366893 
483	 0.272250932450469 
484	 0.273610382398733 
485	 0.275323980304821 
486	 0.276545744562259 
487	 0.276188718342628 
488	 0.274475782694902 
489	 0.273035877203765 
490	 0.27311171571782 
491	 0.274224758459968 
492	 0.275228245731405 
493	 0.275536828945957 
494	 0.275086195046053 
495	 0.274938222886008 
496	 0.275195821611906 
497	 0.275697967801256 
498	 0.276086768025709 
499	 0.276196625778811 
500	 0.276023378881644 
501	 0.275630874281944 
502	 0.275105566078807 
503	 0.27424197684434 
504	 0.273115469503414 
505	 0.272085301087968 
506	 0.272139098871652 
507	 0.273281238678686 
508	 0.274883130710797 
509	 0.275580979192002 
510	 0.27632054819907 
511	 0.277255730970879 
512	 0.278333836725292 
513	 0.279647004194848 
514	 0.280416836006551 
515	 0.280936328432968 
516	 0.282263695928085 
517	 0.283703809937168 
518	 0.283824565390874 
519	 0.282435842708886 
520	 0.28181860689084 
521	 0.282226306674666 
522	 0.282975546597541 
523	 0.283183739465185 
524	 0.282908447865059 
525	 0.283430416191028 
526	 0.284753083940005 
527	 0.285530729942342 
528	 0.284733950970897 
529	 0.283854775696897 
530	 0.284132025745692 
531	 0.284962224618737 
532	 0.285985808756912 
533	 0.286528932214601 
534	 0.286036062834353 
535	 0.285703691549228 
536	 0.285946215946505 
537	 0.286485592066976 
538	 0.286271895035904 
539	 0.286253695759939 
540	 0.286176220814503 
541	 0.285606222327399 
542	 0.284549142595033 
543	 0.284104892536702 
544	 0.284354949516169 
545	 0.284690249269195 
546	 0.285182843303636 
547	 0.285702643248989 
548	 0.286184727714137 
549	 0.28670790809305 
550	 0.287300447835766 
551	 0.287948211657051 
552	 0.288573384909649 
553	 0.288925244927904 
554	 0.288956574093998 
555	 0.288960744716402 
556	 0.289495432526002 
557	 0.289846518570667 
558	 0.290023567662345 
559	 0.290080965630939 
560	 0.289739512253753 
561	 0.289601566734499 
562	 0.289591302724738 
563	 0.289355123362342 
564	 0.289232430575725 
565	 0.288925798133778 
566	 0.288070119951697 
567	 0.286268834529225 
568	 0.284516234577304 
569	 0.28313174432008 
570	 0.28219844859229 
571	 0.281783343980703 
572	 0.281083871981016 
573	 0.280127284713057 
574	 0.279538815752133 
575	 0.278749917678708 
576	 0.277779094104173 
577	 0.276840502505964 
578	 0.276316558982717 
579	 0.276163282835912 
580	 0.276469281087411 
581	 0.277258081610575 
582	 0.278122391508034 
583	 0.278743658979443 
584	 0.278769443925112 
585	 0.277771941231962 
586	 0.274465633377511 
587	 0.269700868142811 
588	 0.264651097988417 
589	 0.259909057644963 
590	 0.256705877170108 
591	 0.256381520312218 
592	 0.259189859705841 
593	 0.262127837668945 
594	 0.264479234145911 
595	 0.266279962741786 
596	 0.268216053651253 
597	 0.270743860886936 
598	 0.273473887498033 
599	 0.2758706366635 
600	 0.278285681202964 
601	 0.280308128659419 
602	 0.281656081499759 
603	 0.282207122590223 
604	 0.282535864698702 
605	 0.282755757096657 
606	 0.282862522023764 
607	 0.282817628122976 
608	 0.282672546914192 
609	 0.282405543015175 
610	 0.282000081205574 
611	 0.281680536681018 
612	 0.281664665053964 
613	 0.281964532675016 
614	 0.282320224813952 
615	 0.282789784638382 
616	 0.283148045106569 
617	 0.283179795678607 
618	 0.282991310383088 
619	 0.282745141783093 
620	 0.282535012715575 
621	 0.282388314514754 
622	 0.282229616605552 
623	 0.281877841656793 
624	 0.281188037858261 
625	 0.280205187836932 
626	 0.277991434886506 
627	 0.275134489439485 
628	 0.27302951764411 
629	 0.273414748464117 
630	 0.274622288573737 
631	 0.275455590105666 
632	 0.275632117217075 
633	 0.276327877327504 
634	 0.277223674168179 
635	 0.277842647163583 
636	 0.278312706438328 
637	 0.278678027333407 
638	 0.278947175815995 
639	 0.279122483868771 
640	 0.279319767380169 
641	 0.279410547592735 
642	 0.279207079298218 
643	 0.278521625579702 
644	 0.276753494184813 
645	 0.273216473635362 
646	 0.267763390119207 
647	 0.262571617697959 
648	 0.261389275263868 
649	 0.26427250251441 
650	 0.267376126716786 
651	 0.267759102508918 
652	 0.267896328902753 
653	 0.269307072237834 
654	 0.269105231365303 
655	 0.268852301385645 
656	 0.269590207073904 
657	 0.271747331567493 
658	 0.273435611485963 
659	 0.275029017342085 
660	 0.27676297328659 
661	 0.278329902419817 
662	 0.279074650366541 
663	 0.279333618303815 
664	 0.279572424188214 
665	 0.279849054530541 
666	 0.280198285914067 
667	 0.280506951265443 
668	 0.28060082614071 
669	 0.280686540158266 
670	 0.280728186911643 
671	 0.280726796195734 
672	 0.28078600032617 
673	 0.280924801413549 
674	 0.280987693711044 
675	 0.280866662888309 
676	 0.280881585077497 
677	 0.280881050042494 
678	 0.280817364268706 
679	 0.280740688693578 
680	 0.280752826685124 
681	 0.280504242888664 
682	 0.27995857136699 
683	 0.27992932133459 
684	 0.279961214336633 
685	 0.277608721744383 
686	 0.270640221345903 
687	 0.265475917748196 
688	 0.264620155861064 
689	 0.266970202771293 
690	 0.267828753526044 
691	 0.265656604557763 
692	 0.260937881891888 
693	 0.255646612872682 
694	 0.255238482831371 
695	 0.260362895360135 
696	 0.267018737600944 
697	 0.270218573436438 
698	 0.267789703512153 
699	 0.263625800633122 
700	 0.261059572501605 
701	 0.261910779018195 
702	 0.266466759682128 
703	 0.271160238015433 
704	 0.273164186226073 
705	 0.273119660355484 
706	 0.27387195780754 
707	 0.276082798644481 
708	 0.278942413371119 
709	 0.280910687218242 
710	 0.282839949191244 
711	 0.28491160084728 
712	 0.286110017940568 
713	 0.285715881326583 
714	 0.28257529845551 
715	 0.275581492504442 
716	 0.262746871373963 
717	 0.249689960348927 
718	 0.24155103884368 
719	 0.24215203386889 
720	 0.254482310295727 
721	 0.264817136774759 
722	 0.267349372014046 
723	 0.261968824549768 
724	 0.257838140259604 
725	 0.257157022116407 
726	 0.258983173086281 
727	 0.262005881933356 
728	 0.264383152587029 
729	 0.266065545626573 
730	 0.268717590461114 
731	 0.277587981081443 
732	 0.288430718915146 
733	 0.296579725954487 
734	 0.299246763254608 
735	 0.299896532587039 
736	 0.301208410825547 
737	 0.30475363940882 
738	 0.308836410097123 
739	 0.313351007326266 
740	 0.317792966975063 
741	 0.321530593558949 
742	 0.324850370968327 
743	 0.327523370325454 
744	 0.329541951872255 
745	 0.331232339508818 
746	 0.332409077994501 
747	 0.333273223614494 
748	 0.334017815581277 
749	 0.334407192099891 
750	 0.334875366141176 
751	 0.335415548995931 
752	 0.335767958229329 
753	 0.336063155442209 
754	 0.336209338377201 
755	 0.336154251525251 
756	 0.335933041126631 
757	 0.331973736124807 
758	 0.322871369702129 
759	 0.307437480494266 
760	 0.299014683931166 
761	 0.294213620372312 
762	 0.293124101722047 
763	 0.294676992629298 
764	 0.304690455738578 
765	 0.316302339905772 
766	 0.324961215402657 
767	 0.330196003016006 
768	 0.333240449039123 
769	 0.33518161961688 
770	 0.336564709740347 
771	 0.337270459565313 
772	 0.337794148683307 
773	 0.338186267863892 
774	 0.338383956291382 
775	 0.338690210916605 
776	 0.338848698984762 
777	 0.338826423397083 
778	 0.338806826649646 
779	 0.338845416467387 
780	 0.338802198795374 
781	 0.338478612933944 
782	 0.337632724869628 
783	 0.336593203924701 
784	 0.335013058931198 
785	 0.33255953506646 
786	 0.32969297263619 
787	 0.326621911910642 
788	 0.32410365453272 
789	 0.323184958318837 
790	 0.323703389613956 
791	 0.325410668694286 
792	 0.327426603129851 
793	 0.328316028365626 
794	 0.326804246066588 
795	 0.324752654555165 
796	 0.323692958377647 
797	 0.322670422334391 
798	 0.321086125171558 
799	 0.319452149777574 
800	 0.318514171165436 
801	 0.317721341982437 
802	 0.317919368565531 
803	 0.319464908722815 
804	 0.32195918967196 
805	 0.323237864535431 
806	 0.322837932936125 
807	 0.320856333185297 
808	 0.31770693182908 
809	 0.313514634483446 
810	 0.308453904168383 
811	 0.302642370621467 
812	 0.295803788997048 
813	 0.289457618036678 
814	 0.284715550884138 
815	 0.282466631063341 
816	 0.28247048955903 
817	 0.285593036559344 
818	 0.290728083210477 
819	 0.295075255108426 
820	 0.292440706807266 
821	 0.29003083713284 
822	 0.292647466540509 
823	 0.300343444940475 
824	 0.30103569783059 
825	 0.297526208222525 
826	 0.29500241499202 
827	 0.295887019334108 
828	 0.297570692065127 
829	 0.298807649122369 
830	 0.299415421639013 
831	 0.301586727412348 
832	 0.30492458427377 
833	 0.308565407603069 
834	 0.311516044608295 
835	 0.313732557331457 
836	 0.315737182205465 
837	 0.317747846655619 
838	 0.319610827977823 
839	 0.321170193774476 
840	 0.322856813561904 
841	 0.32474596120093 
842	 0.326193158745677 
843	 0.328222123068341 
844	 0.330109909035476 
845	 0.331008832809367 
846	 0.330893863304091 
847	 0.330612626132947 
848	 0.330735620463055 
849	 0.331401004693094 
850	 0.331518306762725 
851	 0.331033546488809 
852	 0.331051548708496 
853	 0.33305811618457 
854	 0.335771515457626 
855	 0.33713477260731 
856	 0.336708324527606 
857	 0.335846700790582 
858	 0.335868495540163 
859	 0.336507318239902 
860	 0.337139928268698 
861	 0.33707231236275 
862	 0.336743185420512 
863	 0.336378571077546 
864	 0.336432398702944 
865	 0.338032111749885 
866	 0.339718028704421 
867	 0.340334950236926 
868	 0.339522521086146 
869	 0.338956377148475 
870	 0.338308251810286 
871	 0.337880103388087 
872	 0.338007137093907 
873	 0.33788105184839 
874	 0.33769598269527 
875	 0.33743959950554 
876	 0.33693734645676 
877	 0.336069121680099 
878	 0.335203768323501 
879	 0.334737975354435 
880	 0.334882993062734 
881	 0.334427221067506 
882	 0.333468610114953 
883	 0.332388862023694 
884	 0.331646732415548 
885	 0.331646326253945 
886	 0.33152996247381 
887	 0.330479484680428 
888	 0.328259578711039 
889	 0.324594178855059 
890	 0.31997294573497 
891	 0.314917330044454 
892	 0.309507989849301 
893	 0.304122273541526 
894	 0.299151435627205 
895	 0.294842919968235 
896	 0.290810152752488 
897	 0.286853764307591 
898	 0.284711287207511 
899	 0.286309035720272 
900	 0.290471063294438 
901	 0.292709313267129 
902	 0.290403223456199 
903	 0.283764791548131 
904	 0.278013086968717 
905	 0.276127041738855 
906	 0.277997105836901 
907	 0.281150936366355 
908	 0.280608286037819 
909	 0.276601866692432 
910	 0.271358665625262 
911	 0.268185245572874 
912	 0.267580666348248 
913	 0.269257036211546 
914	 0.272384757464604 
915	 0.275883241681361 
916	 0.280038213424354 
917	 0.282349537789265 
918	 0.281559365331555 
919	 0.278147511236076 
920	 0.275164112538272 
921	 0.273915970141401 
922	 0.273526929811988 
923	 0.271329437437604 
924	 0.266114963622477 
925	 0.259446112287697 
926	 0.252909136040538 
927	 0.247423399832357 
928	 0.245291036158611 
929	 0.245699780731269 
930	 0.246371117641665 
931	 0.243706178300235 
932	 0.244415670979241 
933	 0.249716034635039 
934	 0.255952127905411 
935	 0.256411074958792 
936	 0.249249627401396 
937	 0.241678457422726 
938	 0.23549861254965 
939	 0.225927801163362 
940	 0.22011588314409 
941	 0.222591470751374 
942	 0.228705743447526 
943	 0.225063385305606 
944	 0.228001339149093 
945	 0.228681164283099 
946	 0.224345463581943 
947	 0.22573331556518 
948	 0.229322081878874 
949	 0.229171425961949 
950	 0.225434009527298 
951	 0.224670682518629 
952	 0.227460350284941 
953	 0.231923398695505 
954	 0.233800980077513 
955	 0.229383224686802 
956	 0.233962697543632 
957	 0.23594313514134 
958	 0.235035779228822 
959	 0.240745863953129 
960	 0.244550097495793 
961	 0.249182314148411 
962	 0.255287548582971 
963	 0.261220124713895 
964	 0.266190691265781 
965	 0.269876528438631 
966	 0.270526888722017 
967	 0.266656926846175 
968	 0.261680093994151 
969	 0.260234321930639 
970	 0.262263223459854 
971	 0.26530031743054 
972	 0.269220025320771 
973	 0.27362633930628 
974	 0.278059133543415 
975	 0.281687751221524 
976	 0.282472421793475 
977	 0.284054452028687 
978	 0.2869702075065 
979	 0.290085498472337 
980	 0.292268875949997 
981	 0.295442047660331 
982	 0.299255137158891 
983	 0.30255417159966 
984	 0.304228457045725 
985	 0.305699277769791 
986	 0.307749545805795 
987	 0.310039472045153 
988	 0.310731143516516 
989	 0.314693236209825 
990	 0.316843687563208 
991	 0.315814877408255 
992	 0.317919745554771 
993	 0.318711033426432 
994	 0.318298363252808 
995	 0.318006329398685 
996	 0.319240084099065 
997	 0.320256628665508 
998	 0.321845418959308 
999	 0.322737924052064 
1000	 0.321152980602441 
1001	 0.340223347718644 
1002	 0.340666930362086 
1003	 0.341209122281963 
1004	 0.341560154905063 
1005	 0.341702529434701 
1006	 0.341660017108336 
1007	 0.341195427348982 
1008	 0.34136124411341 
1009	 0.341762575502 
1010	 0.34225363128107 
1011	 0.342364773737924 
1012	 0.342721167595135 
1013	 0.342847963584118 
1014	 0.342259624410643 
1015	 0.343201747067307 
1016	 0.344144229298197 
1017	 0.344594985157626 
1018	 0.3453516518666 
1019	 0.345683345502777 
1020	 0.345182194435316 
1021	 0.345047445851935 
1022	 0.344942093985165 
1023	 0.344966657970196 
1024	 0.345078725869793 
1025	 0.345143578688663 
1026	 0.345521696109929 
1027	 0.345473339527805 
1028	 0.345373194696361 
1029	 0.346035717389693 
1030	 0.346539010790442 
1031	 0.346557206358372 
1032	 0.346436353630327 
1033	 0.346054282939718 
1034	 0.345778370819166 
1035	 0.344965447599058 
1036	 0.345053335470653 
1037	 0.346118436456323 
1038	 0.345795714625492 
1039	 0.345483783317153 
1040	 0.345481356421305 
1041	 0.344124267064432 
1042	 0.343705245962567 
1043	 0.344007747984303 
1044	 0.34410426999652 
1045	 0.344238010725788 
1046	 0.343808828427388 
1047	 0.344195555708834 
1048	 0.344450586409142 
1049	 0.343951583179988 
1050	 0.343178151373203 
1051	 0.34273588845787 
1052	 0.34162115210945 
1053	 0.340543188344565 
1054	 0.341066830503167 
1055	 0.341284694148421 
1056	 0.340980930379717 
1057	 0.340760357644591 
1058	 0.33991775412509 
1059	 0.33975617364626 
1060	 0.340209794376151 
1061	 0.340171505099191 
1062	 0.340323790762012 
1063	 0.339762206098004 
1064	 0.339147529341157 
1065	 0.338100265525465 
1066	 0.337422049346703 
1067	 0.336091426282212 
1068	 0.335261173841185 
1069	 0.334725721074723 
1070	 0.334528155364309 
1071	 0.335530866600322 
1072	 0.336590734548179 
1073	 0.337206258792509 
1074	 0.337101436579546 
1075	 0.336524762396258 
1076	 0.336530660792719 
1077	 0.336749065161865 
1078	 0.336714597490189 
1079	 0.336232182899014 
1080	 0.335600628145941 
1081	 0.334071438556825 
1082	 0.332999127543066 
1083	 0.332104569023091 
1084	 0.330814792967756 
1085	 0.330340541328868 
1086	 0.329622585046061 
1087	 0.329350980987677 
1088	 0.329941535839662 
1089	 0.329962076923037 
1090	 0.32973283193963 
1091	 0.328818915457553 
1092	 0.327596455303283 
1093	 0.326325596102539 
1094	 0.325106519662985 
1095	 0.323223916875822 
1096	 0.321068179979287 
1097	 0.317372598789564 
1098	 0.313258542857717 
1099	 0.308816424390694 
1100	 0.303980142991697 
1101	 0.300982093167372 
1102	 0.298345736171044 
1103	 0.294110458333408 
1104	 0.289995987383143 
1105	 0.285774787850038 
1106	 0.281306757463309 
1107	 0.276673329832622 
1108	 0.272199655839978 
1109	 0.269316760881987 
1110	 0.266522593784769 
1111	 0.265096608815796 
1112	 0.262804139759994 
1113	 0.260937936203775 
1114	 0.257097029518501 
1115	 0.253977704393081 
1116	 0.252711898342639 
1117	 0.254430359820697 
1118	 0.252639461007482 
1119	 0.246070933171388 
1120	 0.239429531944633 
1121	 0.229844359219412 
1122	 0.228562340881966 
1123	 0.230470595757516 
1124	 0.226009290913445 
1125	 0.225579117558643 
1126	 0.224501611512859 
1127	 0.215886466989148 
1128	 0.199173776486158 
1129	 0.195281598934215 
1130	 0.191620370314059 
1131	 0.191611203912365 
1132	 0.201321679432853 
1133	 0.204171905121146 
1134	 0.204811591688035 
1135	 0.200897588641022 
1136	 0.194474772203408 
1137	 0.19949711703256 
1138	 0.202252583199711 
1139	 0.203660851236557 
1140	 0.208326232082891 
1141	 0.20433515433894 
1142	 0.203175112005698 
1143	 0.202328547268352 
1144	 0.203197611654083 
1145	 0.203169699732066 
1146	 0.206563899191139 
1147	 0.216352164956906 
1148	 0.218106904495966 
1149	 0.211919026019136 
1150	 0.211433494139668 
1151	 0.203284151816679 
1152	 0.194545554555667 
1153	 0.195472497318888 
1154	 0.195825214719076 
1155	 0.194892846747942 
1156	 0.19816743008721 
1157	 0.204530241094439 
1158	 0.209279903989307 
1159	 0.214262209221326 
1160	 0.220541945346408 
1161	 0.225626555170558 
1162	 0.229551600606536 
1163	 0.233940091890716 
1164	 0.238764336928026 
1165	 0.24307805650986 
1166	 0.248501055008761 
1167	 0.252695250340658 
1168	 0.256308669899974 
1169	 0.260719027667173 
1170	 0.263652522096194 
1171	 0.267660754603457 
1172	 0.271918543082048 
1173	 0.275361542858053 
1174	 0.279210645608252 
1175	 0.280972766926651 
1176	 0.28252845195503 
1177	 0.283922238618335 
1178	 0.284611668188148 
1179	 0.284755934935579 
1180	 0.284357471185227 
1181	 0.28282137004202 
1182	 0.281486480067579 
1183	 0.279410327939387 
1184	 0.277620489525063 
1185	 0.276340175967572 
1186	 0.275492268791495 
1187	 0.276349692588599 
1188	 0.277279494133968 
1189	 0.279220912113137 
1190	 0.281846599342777 
1191	 0.283651185008907 
1192	 0.285610440466176 
1193	 0.287361138842923 
1194	 0.289305078229826 
1195	 0.29045737899632 
1196	 0.29125418118234 
1197	 0.291851623793113 
1198	 0.291667219650855 
1199	 0.291857293545134 
1200	 0.291995932782799 
1201	 0.292559481936241 
1202	 0.293412694763861 
1203	 0.293961632974339 
1204	 0.2949198663136 
1205	 0.295818049138969 
1206	 0.297134747017289 
1207	 0.298214380693941 
1208	 0.299058410059317 
1209	 0.300160449047091 
1210	 0.300642025686501 
1211	 0.300204686136524 
1212	 0.300909469144175 
1213	 0.301449825411188 
1214	 0.302833412933761 
1215	 0.305199800652485 
1216	 0.30711711175272 
1217	 0.309161769861863 
1218	 0.311265622472819 
1219	 0.313476707879712 
1220	 0.315333329075332 
1221	 0.317054527661235 
1222	 0.319200124777685 
1223	 0.320639490222384 
1224	 0.321992801174417 
1225	 0.322952439687313 
1226	 0.323515990148535 
1227	 0.324310347168355 
1228	 0.325058420194447 
1229	 0.326440559669615 
1230	 0.328492676885533 
1231	 0.330165997702705 
1232	 0.332164466066815 
1233	 0.333655443256117 
1234	 0.334674189786324 
1235	 0.336013515468646 
1236	 0.337530522556832 
1237	 0.338770809820595 
1238	 0.340097324480671 
1239	 0.341206744133423 
1240	 0.342118828582119 
1241	 0.342768854454806 
1242	 0.343176295067698 
1243	 0.343620482961809 
1244	 0.344029873429008 
1245	 0.344392955020541 
1246	 0.344768404573786 
1247	 0.345086954876945 
1248	 0.344981368766339 
1249	 0.344263287000447 
1250	 0.34400744179969 
1251	 0.343796484396214 
1252	 0.343473229201586 
1253	 0.343456352522446 
1254	 0.343017488051953 
1255	 0.342257476998779 
1256	 0.341320762334289 
1257	 0.340160713512854 
1258	 0.338678548268283 
1259	 0.336845619859655 
1260	 0.335006595426746 
1261	 0.332470947377393 
1262	 0.330553796116439 
1263	 0.329144232343818 
1264	 0.326953054276465 
1265	 0.325694593561679 
1266	 0.325072824669146 
1267	 0.323847363437196 
1268	 0.322865218224629 
1269	 0.321869652886551 
1270	 0.320322204056142 
1271	 0.320154585122662 
1272	 0.320428639160333 
1273	 0.32147522690065 
1274	 0.323647852849135 
1275	 0.325456641015021 
1276	 0.328024456803827 
1277	 0.329814284641328 
1278	 0.331570754942605 
1279	 0.332868435445862 
1280	 0.333813906347512 
1281	 0.334441511010112 
1282	 0.334746324369306 
1283	 0.334745241509634 
1284	 0.334418517747099 
1285	 0.33363484952146 
1286	 0.332789674927423 
1287	 0.332250903564243 
1288	 0.331885726107358 
1289	 0.331680020425042 
1290	 0.330841017091643 
1291	 0.329681331467109 
1292	 0.328621564937096 
1293	 0.327296818917251 
1294	 0.325617690140803 
1295	 0.323771669153659 
1296	 0.322075362327207 
1297	 0.31956280906248 
1298	 0.317982335731047 
1299	 0.317122374451392 
1300	 0.316095227826763 
1301	 0.315781303623368 
1302	 0.314638940558229 
1303	 0.313229659907459 
1304	 0.311663607572328 
1305	 0.309296871334121 
1306	 0.307082563685343 
1307	 0.304616617878721 
1308	 0.302575332312654 
1309	 0.300203508720151 
1310	 0.297158775526802 
1311	 0.294194783702375 
1312	 0.290667972048624 
1313	 0.286788724327676 
1314	 0.281999818005035 
1315	 0.278420721504524 
1316	 0.274792891275923 
1317	 0.272048715293766 
1318	 0.270869011797372 
1319	 0.269087779875771 
1320	 0.267676255216181 
1321	 0.265929167685131 
1322	 0.264248168639215 
1323	 0.262361013371143 
1324	 0.260539064874675 
1325	 0.257623928358767 
1326	 0.253083052543068 
1327	 0.249377288710953 
1328	 0.245084115518189 
1329	 0.239994773457094 
1330	 0.234903519651105 
1331	 0.229004112819216 
1332	 0.22293859163504 
1333	 0.213812166667971 
1334	 0.204855862165169 
1335	 0.198628725906344 
1336	 0.194335595018585 
1337	 0.191335419684397 
1338	 0.191209547512427 
1339	 0.197120065881491 
1340	 0.19888841770588 
1341	 0.202113353376482 
1342	 0.20226639330656 
1343	 0.196849849338757 
1344	 0.197091295966727 
1345	 0.195955152418195 
1346	 0.202095408608725 
1347	 0.233116856924033 
1348	 0.25920797554708 
1349	 0.298346856265666 
1350	 0.350262768542583 
1351	 0.368382193367626 
1352	 0.45464553053782 
1353	 0.554457990527445 
1354	 0.735678278453629 
1355	 0.899433267961671 
1356	 1.02344066164463 
1357	 0.872272367976761 
1358	 0.85501922828902 
1359	 0.646813488591063 
1360	 0.74931107853476 
1361	 1.1602520312666 
1362	 1.94524615390413 
1363	 2.60161839975224 
1364	 2.23770779784777 
1365	 2.50018668176012 
1366	 2.75638786018846 
1367	 3.03907796795331 
1368	-22.0511850731137 
1369	 9.82480582114639 
1370	 0.534328671622073 
1371	 0.230877136062087 
1372	 0.265297195242235 
1373	 0.218805489682718 
1374	 0.16334285336285 
1375	 0.195533738826086 
1376	 0.308244189680726 
1377	 0.419166084826216 
1378	 0.814442734345465 
1379	 0.947075953430678 
1380	 0.459395162206821 
1381	 0.559366824096318 
1382	 1.15277126042106 
1383	 1.43695384604557 
1384	 2.91762158772295 
1385	 4.82926477240454 
1386	 3.40522438347888 
1387	 1.7819932117787 
1388	 0.930502919199475 
1389	 0.859604356327431 
1390	 0.906573214650433 
1391	 1.11542405752033 
1392	 1.52855945059692 
1393	-8.10260750996058 
1394	-5.36125477133014 
1395	 7.09809885998854 
1396	 2.75739489135699 
1397	 1.03645253487839 
1398	 0.864086121682513 
1399	 0.72431698956256 
1400	 0.831436678451811 
1401	 1.94481484297222 
1402	 2.64561974917562 
1403	 4.93572580403818 
1404	 6.38980257582438 
1405	 1.46417847498814 
1406	 0.484969124364651 
1407	-0.443450446175225 
1408	-0.657058482760038 
1409	-0.460397925877159 
1410	-0.34102960112904 
1411	-0.111086584590759 
1412	 5.8946103483304E-04 
1413	 0.180835940958855 
1414	 0.307435707497738 
1415	 0.945652561172637 
1416	 2.38489836295616 
1417	 8.53190741655691 
1418	-2.73564358926596 
1419	 0.729270861421723 
1420	 0.435773402176534 
1421	 0.502534795515396 
1422	 0.883036156358007 
1423	 0.718617905966628 
1424	 0.472369697528814 
1425	 0.523411527269251 
1426	 0.551228856206762 
1427	 0.624419167299786 
1428	 0.938362582311949 
1429	 0.999958748104499 
1430	 0.874080300450735 
1431	 0.916966821052653 
1432	 1.08564834286032 
1433	 1.00827856647532 
1434	 0.866661764566187 
1435	 0.736909465911542 
1436	 0.432128931620753 
1437	 0.356032395907744 
1438	 0.435506385311981 
1439	 0.418505336533861 
1440	 0.409046859661542 
1441	 0.399969616543699 
1442	 0.365948007780588 
1443	 0.338388693182597 
1444	 0.367073713453237 
1445	 0.326169181176836 
1446	 0.23409347582312 
1447	 0.214722867640914 
1448	 0.212707097954608 
1449	 0.194285940909129 
1450	 0.177660605748169 
1451	 0.181171439572634 
1452	 0.186678781995943 
1453	 0.186775988644509 
1454	 0.220284087287335 
1455	 0.212498105468329 
1456	 0.158288693656347 
1457	 0.161897874615674 
1458	 0.172453952292343 
1459	 0.183787466862151 
1460	 0.21773868872189 
1461	 0.299358996373049 
1462	 0.325182952086633 
1463	 0.347251365510792 
1464	 0.346381669450174 
1465	 0.293190372848239 
1466	 0.285066921478068 
1467	 0.287344985088206 
1468	 0.28212327658647 
1469	 0.309518910450098 
1470	 0.286005683958605 
1471	 0.229383850078375 
1472	 0.187186931012662 
1473	 0.100373780193901 
1474	 0.102009289249276 
1475	 0.168615767965222 
1476	 0.176739117240981 
1477	 0.206105533777456 
1478	 0.20894964233894 
1479	 0.158198088045428 
1480	 0.151877447346542 
1481	 0.179112691239206 
1482	 0.176880218297778 
1483	 0.153095974728321 
1484	 0.161909797800579 
1485	 0.173440463253618 
1486	 0.184143825848102 
1487	 0.208821825323399 
1488	 0.223992324562131 
1489	 0.233011132806782 
1490	 0.238879504542947 
1491	 0.236862069284003 
1492	 0.245823992715637 
1493	 0.255138966428909 
1494	 0.264924296460332 
1495	 0.280357297941674 
1496	 0.293051133462521 
1497	 0.305412942626691 
1498	 0.314354105545217 
1499	 0.321847574844293 
1500	 0.331122944810236 
1501	 0.333214433109705 
1502	 0.3369603390669 
1503	 0.344295351562596 
1504	 0.348857372045373 
1505	 0.353795472818173 
1506	 0.36008740617551 
1507	 0.364537777854869 
1508	 0.367028275184316 
1509	 0.370574323107299 
1510	 0.375157517239237 
1511	 0.377592482729314 
1512	 0.379121407874574 
1513	 0.380823861249641 
1514	 0.381693109346468 
1515	 0.383057974922724 
1516	 0.384769024274234 
1517	 0.385815744536401 
1518	 0.385626344848836 
1519	 0.388107005402923 
1520	 0.392221397057459 
1521	 0.394204914188889 
1522	 0.396992602843753 
1523	 0.398612885043402 
1524	 0.397600133092426 
1525	 0.399162405051906 
1526	 0.402655687731223 
1527	 0.404242957136917 
1528	 0.405205928917744 
1529	 0.406778575277645 
1530	 0.408408987718656 
1531	 0.409321257444003 
1532	 0.409959831949687 
1533	 0.41151565098059 
1534	 0.412542389087901 
1535	 0.413994699917634 
1536	 0.417194089066833 
1537	 0.418835569078786 
1538	 0.419744324669483 
1539	 0.420164881158764 
1540	 0.419946752080262 
1541	 0.419744412242501 
1542	 0.41891325783099 
1543	 0.418261943057955 
1544	 0.41759431359181 
1545	 0.417192067355436 
1546	 0.417013440450137 
1547	 0.416504443656339 
1548	 0.415372828608088 
1549	 0.415292828581543 
1550	 0.415567279314473 
1551	 0.415971488986272 
1552	 0.418056890476706 
1553	 0.418581860080687 
1554	 0.417685829174485 
1555	 0.41757901918561 
1556	 0.417772722821965 
1557	 0.417062440256675 
1558	 0.416444582631725 
1559	 0.415273312903967 
1560	 0.412310477173697 
1561	 0.410563984803079 
1562	 0.40983015565639 
1563	 0.408368398710269 
1564	 0.407036433985143 
1565	 0.405069435833628 
1566	 0.401851085110202 
1567	 0.399308068389551 
1568	 0.397033391303092 
1569	 0.393912470713408 
1570	 0.391547586614108 
1571	 0.389864243967517 
1572	 0.3887331176251 
1573	 0.388468961926171 
1574	 0.388316115635965 
1575	 0.388361545864984 
1576	 0.38867352566101 
1577	 0.38835565369788 
1578	 0.389129880507019 
1579	 0.39002823218563 
1580	 0.390010912511279 
1581	 0.391392868408356 
1582	 0.392748962160221 
1583	 0.393744318995348 
1584	 0.393824819949315 
1585	 0.393437580133253 
1586	 0.392994315636985 
1587	 0.390910255003245 
1588	 0.390473671690004 
1589	 0.391321412128177 
1590	 0.391264493344658 
1591	 0.39120304864121 
1592	 0.390594063961408 
1593	 0.389578202873071 
1594	 0.388553408547734 
1595	 0.387226133572579 
1596	 0.386138402937428 
1597	 0.385141920239517 
1598	 0.383580916668055 
1599	 0.381501352381376 
1600	 0.380254041352225 
1601	 0.378969609562702 
1602	 0.378539764660559 
1603	 0.379050791682541 
1604	 0.378774536932329 
1605	 0.37856370682479 
1606	 0.378008047329345 
1607	 0.377223986716711 
1608	 0.376377939543286 
1609	 0.374704082631392 
1610	 0.374880765414333 
1611	 0.376070138932811 
1612	 0.376716462210161 
1613	 0.378541145870193 
1614	 0.379201321588335 
1615	 0.378057488628753 
1616	 0.37908421858442 
1617	 0.381619136095397 
1618	 0.382571111081116 
1619	 0.384226355219083 
1620	 0.384132154591602 
1621	 0.38167921865218 
1622	 0.3812583998651 
1623	 0.381112516595558 
1624	 0.381094888015326 
1625	 0.382353965868607 
1626	 0.381957477691306 
1627	 0.380711503901843 
1628	 0.379951259362305 
1629	 0.378770354495345 
1630	 0.377632998539835 
1631	 0.376398404308853 
1632	 0.375402607468173 
1633	 0.374332269814201 
1634	 0.373375104815459 
1635	 0.372914551249446 
1636	 0.372358278350533 
1637	 0.371069298179367 
1638	 0.370862387645086 
1639	 0.371894284338696 
1640	 0.371282239662303 
1641	 0.370818928165546 
1642	 0.369568484507682 
1643	 0.366260065603057 
1644	 0.365128074829948 
1645	 0.364586638988343 
1646	 0.364577355111558 
1647	 0.366129769671162 
1648	 0.366661946141974 
1649	 0.367456611526836 
1650	 0.366776017474755 
1651	 0.364843146447498 
1652	 0.363764702398706 
1653	 0.361976788727837 
1654	 0.361198320051096 
1655	 0.361709960998135 
1656	 0.360994441117121 
1657	 0.359905874240149 
1658	 0.358834591110144 
1659	 0.357000410324626 
1660	 0.355994341030425 
1661	 0.355346646153194 
1662	 0.35454142618967 
1663	 0.354753067571607 
1664	 0.35494024755301 
1665	 0.356307733599781 
1666	 0.357791988358177 
1667	 0.358619691058567 
1668	 0.359902304174154 
1669	 0.358326299440219 
1670	 0.357314731011095 
1671	 0.357702377041858 
1672	 0.356481092482793 
1673	 0.356607894339651 
1674	 0.356418086395395 
1675	 0.355754854355573 
1676	 0.356463574379592 
1677	 0.35621876500855 
1678	 0.35593677985639 
1679	 0.356190850098771 
1680	 0.355489566422367 
1681	 0.354969227492906 
1682	 0.354464779840971 
1683	 0.353175700240899 
1684	 0.352385741010601 
1685	 0.351852205996726 
1686	 0.352167100055017 
1687	 0.352130580909068 
1688	 0.350436584376148 
1689	 0.348736245685765 
1690	 0.346445248489972 
1691	 0.344438420245185 
1692	 0.343246166117536 
1693	 0.342534436490458 
1694	 0.34154914481685 
1695	 0.340256411144852 
1696	 0.33978818601338 
1697	 0.339955608483883 
1698	 0.340154930272707 
1699	 0.339080543590304 
1700	 0.338199674780831 
1701	 0.337426600944242 
1702	 0.335514462175153 
1703	 0.334256342870456 
1704	 0.33292641393549 
1705	 0.331201145580163 
1706	 0.330022696599322 
1707	 0.329010287510097 
1708	 0.330195372933061 
1709	 0.331337521640631 
1710	 0.33217019793447 
1711	 0.334882477685849 
1712	 0.334397302534013 
1713	 0.332774825483411 
1714	 0.33256580695911 
1715	 0.331386011559959 
1716	 0.33137772567459 
1717	 0.330762254273364 
1718	 0.328102391663404 
1719	 0.327698785234922 
1720	 0.32675600222236 
1721	 0.325034945427143 
1722	 0.323155157710274 
1723	 0.321709249483196 
1724	 0.320743268267753 
1725	 0.319398036116353 
1726	 0.317640858640818 
1727	 0.317561977087855 
1728	 0.318493035443245 
1729	 0.316650991455654 
1730	 0.315182929327161 
1731	 0.313910824724302 
1732	 0.308939093730532 
1733	 0.307497949569429 
1734	 0.309672379479338 
1735	 0.309400114320032 
1736	 0.309666681188071 
1737	 0.308992633767786 
1738	 0.30688184005693 
1739	 0.305440818178384 
1740	 0.301080344864511 
1741	 0.295017585099182 
1742	 0.292133465123551 
1743	 0.289496459400354 
1744	 0.286532976816309 
1745	 0.287372750284516 
1746	 0.289314353962352 
1747	 0.28894283753701 
1748	 0.28970971688157 
1749	 0.290646831591441 
1750	 0.288803542055493 
1751	 0.286847419852723 
1752	 0.285875758163686 
1753	 0.28109165965397 
1754	 0.275219898465342 
1755	 0.274167024749294 
1756	 0.274448473637748 
1757	 0.277289699259216 
1758	 0.281073414872675 
1759	 0.277889499781242 
1760	 0.270760073698168 
1761	 0.262808945688473 
1762	 0.25378208413571 
1763	 0.252405854055223 
1764	 0.253750155505694 
1765	 0.251123492705122 
1766	 0.250188800253541 
1767	 0.246802477886944 
1768	 0.242564063152696 
1769	 0.238935252588055 
1770	 0.235727592474433 
1771	 0.23215820880603 
1772	 0.228260645124281 
1773	 0.22606160113992 
1774	 0.227973557375327 
1775	 0.228772845553089 
1776	 0.219159584122565 
1777	 0.213152751223644 
1778	 0.2048518037795 
1779	 0.197111699338868 
1780	 0.186887189022159 
1781	 0.178108870289895 
1782	 0.170938401032118 
1783	 0.155895127681375 
1784	 0.160007892279818 
1785	 0.175597246039189 
1786	 0.179946494065284 
1787	 0.180750090586419 
1788	 0.170772530857339 
1789	 0.143136404418083 
1790	 0.123132246863723 
1791	 0.126303506631552 
1792	 0.147978794529243 
1793	 0.177433988607526 
1794	 0.160903286380523 
1795	 0.109419366798829 
1796	 8.89480217108907E-02 
1797	 5.65357854021332E-02 
1798	 2.53280562319386E-02 
1799	 4.28443285056421E-03 
1800	-6.85611503102151E-02 
1801	 1.06661308356386 
1802	 1.19104888336075 
1803	 1.05930655550392 
1804	 1.00201848744049 
1805	 0.910901492369193 
1806	 1.09184328729246 
1807	 0.932315648035064 
1808	 0.362379040784675 
1809	 0.254862626474934 
1810	 0.431329794921028 
1811	 0.502681161681982 
1812	 0.816141113557943 
1813	 1.156593658843 
1814	 1.2721361076566 
1815	 1.67277035506699 
1816	 1.76677367885231 
1817	 10.0389052346737 
1818	-16.0318788910601 
1819	-7.81875182156424 
1820	-6.41327690245639 
1821	-3.90203290198076 
1822	-1.7164071770034 
1823	-9.71913097300797E-02 
1824	 0.687890543702 
1825	 1.28666890553723 
1826	 0.992697689512658 
1827	 1.15732157165837 
1828	 2.05007255597517 
1829	 3.5338853487287 
1830	-4.22941053475615 
1831	-0.471625432285419 
1832	-0.144036707887406 
1833	 8.87717170111663E-02 
1834	-0.244408085241464 
1835	-0.188001070662491 
1836	 2.54061733416123E-02 
1837	 0.428853029213323 
1838	 0.552814237766761 
1839	 0.735078572954933 
1840	 0.828945501206405 
1841	 0.823248109276855 
1842	 0.977409872638088 
1843	 1.96027774872479 
1844	 4.31182059607454 
1845	-6.94475015802541 
1846	-8.5827930926332 
1847	 4.33280680338445 
1848	 0.777155152389409 
1849	 0.6272628999503 
1850	 0.378952937804275 
1851	 0.281067540650208 
1852	 0.34835882567622 
1853	 0.326212657183123 
1854	 0.169248116461248 
1855	 0.149962696308108 
1856	 0.198643323107043 
1857	 0.323674937659757 
1858	 0.425131192001844 
1859	 0.747923727222181 
1860	 0.833765936808282 
1861	 0.672096909233876 
1862	 0.74691658828339 
1863	 0.360578018213455 
1864	 0.665569542444241 
1865	 2.78955649279331 
1866	 2.06058646292754 
1867	 1.04546183447568 
1868	-3.83524796318143E-02 
1869	-0.333193192133692 
1870	-1.51999637858203 
1871	-2.55466251128941 
1872	 0.487952099903508 
1873	-0.250698232809308 
1874	-1.94852118213175 
1875	-3.89060861500446 
1876	 3.82555647008414 
1877	 1.52156975817839 
1878	 1.20702596371338 
1879	 1.09629439060114 
1880	 0.888281396251513 
1881	-0.971847750934091 
1882	-4.85391543477338 
1883	-0.182974460668795 
1884	 0.838914688764356 
1885	 12.0606596689067 
1886	 88.4212232149555 
1887	-4.95151660215052 
1888	-2.50498448821413 
1889	-4.39294528120503 
1890	 3.98722761031574 
1891	 2.46639030753379 
1892	 1.34633761158643 
1893	 0.80791355570869 
1894	-0.432416661035274 
1895	-0.719420191549848 
1896	-0.308576026684569 
1897	-7.39733265164053E-02 
1898	 0.775420231530361 
1899	 1.55682404576668 
1900	 1.82588232526643 
1901	 1.67587585325627 
1902	 1.85566203194249 
1903	 2.27515622059979 
1904	 2.65035233238591 
1905	 3.37678797422828 
1906	 3.60230830064237 
1907	 2.59983485489279 
1908	 1.94938747504162 
1909	 1.72839086199009 
1910	 1.93470245460089 
1911	 1.54269473192571 
1912	 0.732489442290089 
1913	 0.811948505682383 
1914	 1.17413512266164 
1915	 1.11513425037473 
1916	 1.73209248996865 
1917	 1.71063875166766 
1918	 0.991094211465231 
1919	 0.540851761888386 
1920	 0.319267248659346 
1921	 6.17731662385193E-02 
1922	 0.116393088296203 
1923	 0.223284246514959 
1924	 0.425838732682574 
1925	 1.04560454082277 
1926	 1.38519951869727 
1927	 1.95944818992353 
1928	 2.47148285318321 
1929	 2.79804483827312 
1930	 4.54000840386838 
1931	 6.79042389301192 
1932	-23.49984989388 
1933	 3.71479850927592 
1934	 0.965240116212635 
1935	 0.51108408079603 
1936	 0.260696066344665 
1937	 0.285481694310356 
1938	 0.250511017053575 
1939	 0.363236374964543 
1940	 0.718078851015795 
1941	 2.18610913251353 
1942	 4.31432471158582 
1943	 3.76291120585836 
1944	 2.99958795764394 
1945	 2.00533127865343 
1946	 1.52154271926033 
1947	 0.696048208731582 
1948	 0.508421785622948 
1949	 0.509078245829736 
1950	 0.453625955149652 
1951	 0.854315263004036 
1952	 0.847164023983279 
1953	 0.388841213135631 
1954	 0.428581257757896 
1955	 0.419874744689261 
1956	 0.373135814474385 
1957	 1.19580566663785 
1958	-41.2961571056422 
1959	-2.17979838951678 
1960	-0.894496186066781 
1961	-1.21196313574035 
1962	 0.560156826277709 
1963	 0.38271028105526 
1964	 0.455907856292723 
1965	 0.519177576936125 
1966	 0.730027736962116 
1967	 1.15391223432041 
1968	 1.82890718346383 
1969	 2.28109249547871 
1970	 2.19619743567513 
1971	 1.71184671591044 
1972	 1.04907810343298 
1973	 0.235959695045821 
1974	 0.032643101447551 
1975	 3.22094140205833E-03 
1976	 0.045200491239893 
1977	 0.150626537823249 
1978	 0.416488043048482 
1979	 1.45688056762046 
1980	 1.61786381036075 
1981	 1.14130191951353 
1982	 0.869849306882453 
1983	 0.731196833281982 
1984	 0.577228249273206 
1985	 0.534569013920295 
1986	 0.547237710498829 
1987	 0.516603672431105 
1988	 0.456401325401913 
1989	 0.389874194055246 
1990	 0.458963023767544 
1991	 0.372127793014882 
1992	 0.377338306442417 
1993	 0.487510006561498 
1994	 0.514391140150893 
1995	 0.632200059049602 
1996	 0.62609740542079 
1997	 0.4655464952744 
1998	 0.448309833755513 
1999	 0.364551100326206 
2000	 0.370584532788394 
2001	 0.572322422080779 
2002	 1.0646945208469 
2003	 1.32556019865218 
2004	 1.37420155291727 
2005	 1.97089277893641 
2006	 1.56098016930828 
2007	 0.707434860391326 
2008	 0.333883106571701 
2009	 0.21829537374156 
2010	 0.233705574640689 
2011	 0.262155541398362 
2012	 0.434023598218676 
2013	 0.484210030455073 
2014	 0.541486905412059 
2015	 0.405564913607056 
2016	 0.367441074982317 
2017	 0.436584587158944 
2018	 0.46455841920578 
2019	 0.482241893521656 
2020	 0.590868914033967 
2021	 0.591683392266883 
2022	 0.544126153562115 
2023	 0.600193117635595 
2024	 0.578203429647365 
2025	 0.486990936632976 
2026	 0.483883345580687 
2027	 0.503314623362103 
2028	 0.491865076892113 
2029	 0.550051243141718 
2030	 0.560553144855888 
2031	 0.551359983824735 
2032	 0.545118825349381 
2033	 0.530967769965964 
2034	 0.504779505818739 
2035	 0.479227419325401 
2036	 0.464493875234987 
2037	 0.467849150310701 
2038	 0.505437213538979 
2039	 0.518222302552157 
2040	 0.53253677006167 
2041	 0.542038979610367 
2042	 0.557200236769283 
2043	 0.509179224711017 
2044	 0.486215781809918 
2045	 0.457002161012318 
2046	 0.417406668928798 
2047	 0.420935012457114 
2048	 0.418641888147002 
2049	 0.45673611894103 
2050	 0.529381663354049 
2051	 0.556889520186989 
2052	 0.575671144324057 
2053	 0.606522190200952 
2054	 0.587308643722716 
2055	 0.500538022473437 
2056	 0.426459446867014 
2057	 0.418105411566204 
2058	 0.380321210623541 
2059	 0.346300782193462 
2060	 0.37745857074005 
2061	 0.354667945560625 
2062	 0.307143315995605 
2063	 0.316693235252598 
2064	 0.287545077497596 
2065	 0.254536327693508 
2066	 0.26184522797047 
2067	 0.278017657150181 
2068	 0.315861085156985 
2069	 0.338933144951565 
2070	 0.365829317999019 
2071	 0.405675592483253 
2072	 0.426382296154811 
2073	 0.41832630219053 
2074	 0.462673952999135 
2075	 0.456651551108415 
2076	 0.397535557293211 
2077	 0.398167644069931 
2078	 0.382853677665162 
2079	 0.374439264647889 
2080	 0.415011339485701 
2081	 0.420831440195112 
2082	 0.418596842872034 
2083	 0.404090654995823 
2084	 0.395275910024949 
2085	 0.377142448526182 
2086	 0.365592387153995 
2087	 0.360270461755005 
2088	 0.351871422003875 
2089	 0.360251395153596 
2090	 0.377173293531644 
2091	 0.402016291329216 
2092	 0.424576505598932 
2093	 0.415659826937116 
2094	 0.411206376111692 
2095	 0.410991580051893 
2096	 0.409073786896941 
2097	 0.444751750816923 
2098	 0.45913773905181 
2099	 0.461177924513235 
2100	 0.456266398671572 
2101	 0.452159493041482 
2102	 0.426411632918424 
2103	 0.42227962118511 
2104	 0.430585723798556 
2105	 0.426449525207472 
2106	 0.434068340958134 
2107	 0.439963630510768 
2108	 0.445139411081002 
2109	 0.455670230558484 
2110	 0.463151295488546 
2111	 0.457263770529972 
2112	 0.45085048718983 
2113	 0.44336142466882 
2114	 0.4485889787992 
2115	 0.465432760446662 
2116	 0.477822030958214 
2117	 0.50901259684738 
2118	 0.518595794642407 
2119	 0.510087024519383 
2120	 0.508829845138737 
2121	 0.504270956741334 
2122	 0.471542833706066 
2123	 0.434226046433313 
2124	 0.400586932577069 
2125	 0.372634161595655 
2126	 0.36046617989673 
2127	 0.371335008735713 
2128	 0.371333553256841 
2129	 0.362717594300117 
2130	 0.369119205410163 
2131	 0.361958990242416 
2132	 0.364628313769679 
2133	 0.362872359208768 
2134	 0.343146486179387 
2135	 0.345891579075868 
2136	 0.360804240220703 
2137	 0.37829189499854 
2138	 0.396767402088144 
2139	 0.432206190288518 
2140	 0.444763530654866 
2141	 0.446902476446295 
2142	 0.455797488712232 
2143	 0.459929638728977 
2144	 0.452568348664667 
2145	 0.43843831831998 
2146	 0.409026870164595 
2147	 0.373554956773533 
2148	 0.359488612739233 
2149	 0.347794773498077 
2150	 0.342199717957026 
2151	 0.361089255536839 
2152	 0.363518559001871 
2153	 0.352396812186397 
2154	 0.358377055706075 
2155	 0.371113081691637 
2156	 0.373797439954582 
2157	 0.385220241926224 
2158	 0.393478852410339 
2159	 0.388924560084227 
2160	 0.387837409628434 
2161	 0.389021166309593 
2162	 0.400544301619116 
2163	 0.391690054887748 
2164	 0.376018317050167 
2165	 0.38051664798616 
2166	 0.365667747200922 
2167	 0.361562857724238 
2168	 0.365674605487875 
2169	 0.357567172955062 
2170	 0.358252338296625 
2171	 0.353654028736545 
2172	 0.349970069562518 
2173	 0.347250462195547 
2174	 0.339849552195084 
2175	 0.332438196800379 
2176	 0.329181828999678 
2177	 0.316921439252214 
2178	 0.310660981238698 
2179	 0.299931945936285 
2180	 0.299245284361663 
2181	 0.319795503962159 
2182	 0.343243619602762 
2183	 0.370975418144238 
2184	 0.384349021720948 
2185	 0.395002066701608 
2186	 0.392595721983531 
2187	 0.384086133147023 
2188	 0.384270226746605 
2189	 0.376759260906825 
2190	 0.363117307529853 
2191	 0.335178585671792 
2192	 0.320361210177636 
2193	 0.3035397530906 
2194	 0.296351909233111 
2195	 0.310521293183924 
2196	 0.315300852226812 
2197	 0.319331436122138 
2198	 0.322933582341153 
2199	 0.320041843720513 
2200	 0.326553288590836 
2201	 0.352703027489531 
2202	 0.373797978527747 
2203	 0.394048202073954 
2204	 0.398387059183489 
2205	 0.398593041577732 
2206	 0.37737950832743 
2207	 0.354337904678973 
2208	 0.328348747440482 
2209	 0.30100934407599 
2210	 0.311218121744066 
2211	 0.300382154807865 
2212	 0.292025370469591 
2213	 0.284529700864655 
2214	 0.23929969887941 
2215	 0.22994728599264 
2216	 0.247865814295947 
2217	 0.257631003012389 
2218	 0.282643598291774 
2219	 0.291590548781966 
2220	 0.287268548294897 
2221	 0.287942271881187 
2222	 0.282441571699465 
2223	 0.289921364152902 
2224	 0.289960659211959 
2225	 0.29362860729434 
2226	 0.282709538427226 
2227	 0.273317650191976 
2228	 0.254913171302866 
2229	 0.227836433356573 
2230	 0.232872951209807 
2231	 0.219913572952261 
2232	 0.244377541005883 
2233	 0.291428199520403 
2234	 0.286937747601202 
2235	 0.32532081709384 
2236	 0.359130401688846 
2237	 0.361297729016816 
2238	 0.377153656645169 
2239	 0.346342807698037 
2240	 0.313778543161272 
2241	 0.278406969281662 
2242	 0.259812010688496 
2243	 0.256116173280671 
2244	 0.259241191033238 
2245	 0.284226091818821 
2246	 0.295346056059899 
2247	 0.301081048394517 
2248	 0.308200914431127 
2249	 0.298821672280473 
2250	 0.307845096330623 
2251	 0.339573589492633 
2252	 0.35277842374781 
2253	 0.347704669300285 
2254	 0.358152775430071 
2255	 0.322221255804864 
2256	 0.30367938772146 
2257	 0.299210578243969 
2258	 0.269974994649872 
2259	 0.272318530828716 
2260	 0.272482263659388 
2261	 0.288470300542179 
2262	 0.31716112073314 
2263	 0.325060751252492 
2264	 0.340689520773239 
2265	 0.350183087899678 
2266	 0.337228242005263 
2267	 0.325966396839482 
2268	 0.324586321517867 
2269	 0.319893812801944 
2270	 0.338582899923196 
2271	 0.332808328396255 
2272	 0.317442339055088 
2273	 0.299853713015086 
2274	 0.247596621727872 
2275	 0.230689839076601 
2276	 0.237986858747273 
2277	 0.245173487992282 
2278	 0.281652826600106 
2279	 0.304395553804486 
2280	 0.314894366057384 
2281	 0.328631331699047 
2282	 0.348773684996777 
2283	 0.344562133972765 
2284	 0.321660315915706 
2285	 0.316067703416612 
2286	 0.308918599498165 
2287	 0.296450422226249 
2288	 0.311002148638987 
2289	 0.329717801130984 
2290	 0.34648427551504 
2291	 0.37529193730204 
2292	 0.387034907249764 
2293	 0.364736398549989 
2294	 0.294721402221784 
2295	 0.229734171585838 
2296	 0.203938738853342 
2297	 0.184949374307939 
2298	 0.2103809424456 
2299	 0.255609642343201 
2300	 0.261288951668989 
2301	 0.273519204092948 
2302	 0.276140888715255 
2303	 0.314410170343255 
2304	 0.378854820540215 
2305	 0.422887800137629 
2306	 0.457013465147249 
2307	 0.424156533807765 
2308	 0.395822242494317 
2309	 0.321410574251166 
2310	 0.304523689710578 
2311	 0.305878139587363 
2312	 0.313302671527347 
2313	 0.365125929616385 
2314	 0.36975667255774 
2315	 0.336600911682016 
2316	 0.328429094416327 
2317	 0.306789755139187 
2318	 0.303232757197573 
2319	 0.332552171123708 
2320	 0.354538997350544 
2321	 0.360490623646498 
2322	 0.41073187658002 
2323	 0.546747287422181 
2324	 0.580439446392729 
2325	 0.526899521139428 
2326	 0.529667538146267 
2327	 0.515010795913656 
2328	 0.510477215523433 
2329	 0.563589568533605 
2330	 0.560021406482346 
2331	 0.483806488788926 
2332	 0.440878981066301 
2333	 0.413219158835024 
2334	 0.374842188779749 
2335	 0.314263330306463 
2336	 0.292291824944456 
2337	 0.325942094406727 
2338	 0.395803945943263 
2339	 0.479964834965938 
2340	 0.528686549949096 
2341	 0.449262942670729 
2342	 0.294332896826236 
2343	 0.212799406349145 
2344	 0.280226768135972 
2345	 0.325086264518922 
2346	 0.398364885156395 
2347	 0.551272684158328 
2348	 0.480261470873463 
2349	 0.427400323677922 
2350	 0.388348445594695 
2351	 0.274978785496051 
2352	 0.283940541303052 
2353	 0.308245737649169 
2354	 0.359854773363555 
2355	 0.550839797680077 
2356	 0.646969808531672 
2357	 0.789043942470031 
2358	 0.951736069984726 
2359	 0.609045080478395 
2360	 0.439944510033545 
2361	 0.263247803475635 
2362	 0.059838575958821 
2363	 0.14881753007253 
2364	 0.270466280940886 
2365	 0.373710116943346 
2366	 0.633964089997922 
2367	 0.650524278913472 
2368	 0.431982317843016 
2369	 0.284829642967197 
2370	 0.284615295722839 
2371	 0.347375922343462 
2372	 0.578766489305284 
2373	 0.777856574091128 
2374	 1.05554320190334 
2375	 1.41832745116095 
2376	 2.66045394988658 
2377	 3.63266609105102 
2378	 3.43407734047046 
2379	 3.63113370265098 
2380	 4.01847637893551 
2381	 2.88203734307929 
2382	 1.56625276327029 
2383	 1.14760338209831 
2384	 0.815243380765666 
2385	 0.569941023925067 
2386	 0.510616870797867 
2387	 0.380278435447855 
2388	 0.197002660910741 
2389	 0.194352234011256 
2390	 0.20228456268858 
2391	 0.293225838433013 
2392	 0.721414556266804 
2393	 0.838333517076502 
2394	 0.745915982299612 
2395	 0.722338346221612 
2396	 0.561365292548302 
2397	 0.523301090062627 
2398	 0.548860264649567 
2399	 0.676834781490927 
2400	 0.875818995779221 
2401	 6.39347555279001 
2402	-1.45855018809415 
2403	-1.58551916787132 
2404	-3.68802032300798 
2405	 9.21709444791304 
2406	 0.898865619069049 
2407	 0.750988750569165 
2408	 0.991523734604582 
2409	 0.95325847861066 
2410	 0.858704817951484 
2411	 0.758116116518594 
2412	 0.492671061901618 
2413	 0.455380664464074 
2414	 0.633637308514237 
2415	 0.687789403151666 
2416	 0.878487925714008 
2417	 1.19134053993826 
2418	 1.22579624396708 
2419	 1.73643472610888 
2420	 7.07877908711698 
2421	-672.993923801085 
2422	-9.84100706623721 
2423	-13.4954297570075 
2424	 4.13534206561271 
2425	 2.17185668848197 
2426	 1.07216435147203 
2427	 0.937825801081493 
2428	 1.44271207957588 
2429	 1.46086063471384 
2430	 1.34963408878673 
2431	 1.4053633472789 
2432	 1.55968036823808 
2433	 1.5335853983256 
2434	 1.19237859613055 
2435	 1.37434161276075 
2436	 1.97039588265993 
2437	 2.00685972100186 
2438	 3.10522576821958 
2439	 2.07747672799138 
2440	-0.494302403071619 
2441	-0.942130331402547 
2442	-1.33363897859787 
2443	-0.406852846727304 
2444	 0.504335440772508 
2445	 0.689008021154178 
2446	 0.805007865116468 
2447	 0.726289838413768 
2448	 0.452970213640755 
2449	 0.433815164399343 
2450	 0.507070565461182 
2451	 1.28514217023519 
2452	 3.16688888515576 
2453	 5.00378903165205 
2454	-38.5677126280162 
2455	-14.0273192075636 
2456	 1.34689577087098 
2457	 0.827885115149396 
2458	 1.16776612287385 
2459	 3.35892390022296 
2460	 4.51909515565231 
2461	 14.035708251495 
2462	 36.4199651679355 
2463	 2.49503849792745 
2464	 1.3879585804479 
2465	 1.10506962858671 
2466	 1.04499405834025 
2467	 2.72219608951366 
2468	 7.93531166708969 
2469	-1.71360112980499 
2470	-1.31869663407978 
2471	 1.44072981042188 
2472	 1.03571542967101 
2473	 2.20127468868323 
2474	 1.85843884051607 
2475	 2.81394231276586 
2476	 2.30266717209974 
2477	 1.19371754457702 
2478	 0.948791126341622 
2479	 0.688746651603737 
2480	 0.583725565015883 
2481	 0.293331333930048 
2482	 0.316275106188358 
2483	-1.80206006040739 
2484	-1.01028103880571 
2485	 225.489573110026 
2486	 35.2753232344348 
2487	 8.0538518995868 
2488	 4.89776722399213 
2489	 4.49427182100605 
2490	 3.36995850557867 
2491	 0.707759947842628 
2492	 0.399844943492232 
2493	 0.667456466787869 
2494	 0.737538212991922 
2495	 1.24687893054848 
2496	 1.58466079376711 
2497	-2.11622671218898 
2498	-0.151149004822068 
2499	 3.24934999353685 
2500	-19.8947008726672 
