Wavelength	000021.asd
350	 2.75143034434655E-02 
351	 3.78934307102935E-02 
352	 3.92662391055719E-02 
353	 3.07439901638455E-02 
354	 3.12392553505306E-02 
355	 3.57891766491759E-02 
356	 3.47656975285077E-02 
357	 1.92809775353536E-02 
358	 1.98350441296364E-02 
359	 2.53265534448643E-02 
360	 2.78124358477977E-02 
361	 3.41280563899586E-02 
362	 3.23592689171044E-02 
363	 2.98300013900053E-02 
364	 3.17221619087318E-02 
365	 2.58948192646669E-02 
366	 2.64874587708414E-02 
367	 2.99503472469631E-02 
368	 2.87222177391044E-02 
369	 3.03100225542573E-02 
370	 3.14001558724349E-02 
371	 3.15720815169291E-02 
372	 3.26374856411663E-02 
373	 3.47915728148952E-02 
374	 3.32128452012907E-02 
375	 2.85715437633581E-02 
376	 2.85992421977293E-02 
377	 2.89178009866993E-02 
378	 3.03740830759763E-02 
379	 3.28916905646217E-02 
380	 3.12450631214756E-02 
381	 3.39179741612496E-02 
382	 3.65087920633505E-02 
383	 3.25325142118141E-02 
384	 2.77699380832631E-02 
385	 3.13670701605028E-02 
386	 3.88957912094156E-02 
387	 3.81718746589385E-02 
388	 0.034626700554458 
389	 3.09362492857655E-02 
390	 2.91715311145421E-02 
391	 3.05934314777858E-02 
392	 3.07274598118925E-02 
393	 3.21119418552771E-02 
394	 0.035678382612551 
395	 3.56657117788401E-02 
396	 3.49366917246661E-02 
397	 3.40031109418963E-02 
398	 3.29464812754112E-02 
399	 3.27133495120436E-02 
400	 3.34409936890916E-02 
401	 3.44644158565469E-02 
402	 3.48014260003456E-02 
403	 3.47340032250106E-02 
404	 3.53192287550771E-02 
405	 3.67475617629592E-02 
406	 3.80489102097404E-02 
407	 3.76052590785483E-02 
408	 3.76057169243622E-02 
409	 3.90656118410017E-02 
410	 3.70293475051482E-02 
411	 3.88668186741841E-02 
412	 4.10226677593068E-02 
413	 3.78502401796786E-02 
414	 3.85184409252274E-02 
415	 3.89847821834046E-02 
416	 3.82677545525096E-02 
417	 3.86618718065748E-02 
418	 3.92721068120065E-02 
419	 4.02023039139485E-02 
420	 4.12209594627923E-02 
421	 4.11528783178523E-02 
422	 4.24981414749559E-02 
423	 4.31277472139911E-02 
424	 0.041065506325907 
425	 4.04150503313443E-02 
426	 0.041191137988617 
427	 4.29703774216504E-02 
428	 4.47723727740397E-02 
429	 4.35778160320221E-02 
430	 4.24025391039015E-02 
431	 4.29869696936632E-02 
432	 4.42929453440735E-02 
433	 4.33886025949075E-02 
434	 4.31151816271196E-02 
435	 4.51298540086198E-02 
436	 4.38589245541164E-02 
437	 4.30011387859048E-02 
438	 4.34143809536012E-02 
439	 4.43707056464754E-02 
440	 4.44542689114341E-02 
441	 4.49448382224627E-02 
442	 4.60618561656266E-02 
443	 4.66179679455941E-02 
444	 4.55497365147393E-02 
445	 4.47880697703914E-02 
446	 4.56402927619422E-02 
447	 4.64585457107844E-02 
448	 4.65973610439007E-02 
449	 4.63683878763202E-02 
450	 4.64047935505108E-02 
451	 4.61773714199706E-02 
452	 4.60091215841101E-02 
453	 4.62469148101164E-02 
454	 4.71446580625297E-02 
455	 4.74983932062733E-02 
456	 4.76908971079892E-02 
457	 4.81807212683247E-02 
458	 4.89425972791096E-02 
459	 4.78341398623618E-02 
460	 0.046843082775102 
461	 4.86633025418103E-02 
462	 4.91347890607031E-02 
463	 4.90501518403966E-02 
464	 4.87712250619816E-02 
465	 0.047930267064406 
466	 4.77312648072333E-02 
467	 4.77209892281375E-02 
468	 4.77518843591319E-02 
469	 4.96241263728396E-02 
470	 0.049964292896937 
471	 4.89629387654917E-02 
472	 4.82434454489147E-02 
473	 4.76095271511344E-02 
474	 4.76007263149981E-02 
475	 4.84185868972046E-02 
476	 4.98063990041813E-02 
477	 4.98963503189413E-02 
478	 0.049447383409822 
479	 4.93760382871183E-02 
480	 4.94231109276377E-02 
481	 4.97931262134588E-02 
482	 5.04322055754962E-02 
483	 5.10558934271965E-02 
484	 5.08118822263358E-02 
485	 5.03409139635503E-02 
486	 5.02545640731676E-02 
487	 5.09034864245777E-02 
488	 5.16166292848439E-02 
489	 0.051714511351132 
490	 5.12916823504629E-02 
491	 5.24499535658998E-02 
492	 5.37327735898644E-02 
493	 5.44961373998318E-02 
494	 5.47236920798655E-02 
495	 0.056051020312517 
496	 5.67554228703247E-02 
497	 0.056771478117631 
498	 5.85446759382268E-02 
499	 5.98115454371355E-02 
500	 6.09779211550421E-02 
501	 6.27136103414727E-02 
502	 6.41931429209311E-02 
503	 6.56196004169906E-02 
504	 6.74060933840768E-02 
505	 6.98888106666826E-02 
506	 7.14371520727713E-02 
507	 7.37902304650484E-02 
508	 7.73398614666676E-02 
509	 7.98331935028656E-02 
510	 8.30846486126748E-02 
511	 8.73520562568456E-02 
512	 9.21171150909264E-02 
513	 9.55689543116263E-02 
514	 0.100204212297014 
515	 0.105436340323946 
516	 0.108545745237179 
517	 0.11468812336227 
518	 0.120936905881761 
519	 0.125320010766673 
520	 0.130389165390953 
521	 0.136982802413393 
522	 0.143311370306982 
523	 0.147621204656643 
524	 0.153338560203586 
525	 0.158887932640492 
526	 0.163811281281661 
527	 0.168972585127638 
528	 0.173275492324486 
529	 0.177294001536558 
530	 0.181653882276335 
531	 0.186450711747809 
532	 0.189634274548001 
533	 0.192023233267242 
534	 0.195395454833679 
535	 0.197091173699559 
536	 0.198786884365591 
537	 0.200913859083087 
538	 0.201778997165015 
539	 0.203070406129263 
540	 0.205122914677103 
541	 0.207343524405256 
542	 0.207208857433739 
543	 0.207732073611353 
544	 0.209336126953872 
545	 0.210631641935821 
546	 0.211337849310911 
547	 0.212551529691314 
548	 0.214332466000714 
549	 0.214451512808035 
550	 0.214423236357631 
551	 0.214868289619073 
552	 0.215833426419522 
553	 0.21613966804897 
554	 0.215835798897866 
555	 0.215100060098512 
556	 0.214165923171293 
557	 0.213375724637368 
558	 0.212115409685372 
559	 0.210143014342084 
560	 0.20881585181934 
561	 0.206936256837302 
562	 0.204236460182475 
563	 0.20104121531853 
564	 0.198510717044198 
565	 0.195970163173582 
566	 0.19283617338559 
567	 0.188902068474014 
568	 0.185734324989562 
569	 0.182659674802228 
570	 0.178686830632232 
571	 0.17429700088024 
572	 0.170974978656494 
573	 0.16854229428018 
574	 0.165603687826403 
575	 0.162606456084614 
576	 0.159677900857187 
577	 0.156997818621236 
578	 0.154926056507751 
579	 0.152777942095291 
580	 0.150709460356443 
581	 0.149162658976239 
582	 0.148211608768977 
583	 0.146520053173305 
584	 0.143902926965927 
585	 0.141618065828025 
586	 0.14052217713642 
587	 0.139177763333114 
588	 0.136516143043446 
589	 0.135724888010434 
590	 0.134467304501217 
591	 0.132777260761766 
592	 0.132025512116681 
593	 0.13142439691762 
594	 0.130788610825844 
595	 0.129952339344858 
596	 0.128604489009447 
597	 0.127836001130768 
598	 0.127703201475406 
599	 0.127809138321858 
600	 0.127313715723011 
601	 0.126978126448893 
602	 0.126779961355776 
603	 0.125953155746549 
604	 0.124118785191617 
605	 0.122169764269779 
606	 0.120871968654207 
607	 0.120194966987589 
608	 0.118907686533707 
609	 0.117232122125104 
610	 0.11605892287639 
611	 0.115058145323545 
612	 0.114031162063378 
613	 0.112554495432442 
614	 0.109878657922899 
615	 0.109352334169237 
616	 0.108899543891151 
617	 0.106275370917081 
618	 0.104587710071062 
619	 0.104442433180084 
620	 0.104539954950147 
621	 0.102542402722291 
622	 0.101620865711386 
623	 0.100771455159693 
624	 9.95145693369603E-02 
625	 0.100132703459954 
626	 0.100223673670158 
627	 9.99776041539312E-02 
628	 0.100255186942471 
629	 9.91463536880794E-02 
630	 9.81269176590779E-02 
631	 9.80670911145494E-02 
632	 9.88717273795278E-02 
633	 0.098013923866342 
634	 9.71807948078514E-02 
635	 9.75593926946143E-02 
636	 0.095811450679217 
637	 9.40940325148953E-02 
638	 9.24898308883124E-02 
639	 0.090065006191677 
640	 8.84107184599394E-02 
641	 8.69620470922385E-02 
642	 8.54633935344643E-02 
643	 0.08464461971472 
644	 8.27110042828365E-02 
645	 7.97203147456686E-02 
646	 7.66926402817342E-02 
647	 7.62915271763442E-02 
648	 7.58949280341313E-02 
649	 7.48171974051624E-02 
650	 7.42641993424899E-02 
651	 7.23636368138065E-02 
652	 7.14858320967755E-02 
653	 0.072566281317868 
654	 7.15753603792138E-02 
655	 7.06878819010308E-02 
656	 7.00135582461823E-02 
657	 0.069047609287836 
658	 6.83540533582194E-02 
659	 6.71074124103822E-02 
660	 6.59457892972819E-02 
661	 6.71264513898787E-02 
662	 6.60760542995507E-02 
663	 6.43841064044668E-02 
664	 6.38089274838782E-02 
665	 6.16719611562883E-02 
666	 6.05692239202624E-02 
667	 6.05226900000551E-02 
668	 6.01468022509635E-02 
669	 5.99937819740117E-02 
670	 6.10867613627562E-02 
671	 6.25167719768344E-02 
672	 6.00986624537667E-02 
673	 5.88060276501352E-02 
674	 5.94227193212389E-02 
675	 6.10343210226135E-02 
676	 6.16025100715859E-02 
677	 6.21672910851688E-02 
678	 6.24869557331831E-02 
679	 6.15582717448994E-02 
680	 6.36138804297226E-02 
681	 6.56339102989413E-02 
682	 6.58922652690935E-02 
683	 6.78169168122336E-02 
684	 7.06404610975664E-02 
685	 7.31710049148625E-02 
686	 7.49641993545261E-02 
687	 8.02654695529233E-02 
688	 8.57935346271653E-02 
689	 8.97685567687727E-02 
690	 9.45771146384426E-02 
691	 0.102929580434944 
692	 0.112183217795078 
693	 0.121088950007178 
694	 0.133616930024267 
695	 0.144819283870105 
696	 0.156101913875497 
697	 0.17141527468445 
698	 0.186786476470546 
699	 0.200494099732407 
700	 0.213965563090511 
701	 0.233876545409935 
702	 0.249775703374524 
703	 0.263773025923646 
704	 0.279839343205945 
705	 0.297302912486598 
706	 0.313788434296943 
707	 0.329045221961034 
708	 0.344311692075358 
709	 0.359999734120586 
710	 0.377230462379869 
711	 0.395334647059726 
712	 0.411647057982606 
713	 0.426410075315883 
714	 0.440646797287227 
715	 0.455434474455528 
716	 0.470033820246634 
717	 0.486065639629043 
718	 0.503722502709978 
719	 0.521608436016455 
720	 0.5389250057213 
721	 0.552070915559957 
722	 0.563596930482157 
723	 0.579633638670556 
724	 0.593531917199967 
725	 0.606313140075275 
726	 0.620731689482328 
727	 0.633201522003071 
728	 0.644142814471218 
729	 0.655008976758926 
730	 0.667369116473447 
731	 0.679410638746223 
732	 0.690850922956554 
733	 0.70153295267945 
734	 0.711597239506764 
735	 0.719066110011864 
736	 0.72565104346218 
737	 0.733236489736803 
738	 0.742414726002183 
739	 0.749711880412375 
740	 0.755040287217691 
741	 0.760426484855943 
742	 0.766604988726245 
743	 0.772381366179867 
744	 0.777329787791851 
745	 0.782271137441376 
746	 0.786316896004536 
747	 0.789527614827849 
748	 0.792436651190582 
749	 0.796333616356894 
750	 0.799693315759068 
751	 0.801827331138041 
752	 0.802954450580409 
753	 0.805434976466405 
754	 0.807891577120016 
755	 0.809439930684729 
756	 0.810436743778917 
757	 0.812013460073531 
758	 0.814261061337858 
759	 0.816864193603962 
760	 0.814587530462319 
761	 0.808966189564549 
762	 0.806216784660521 
763	 0.807610320355304 
764	 0.808770825292011 
765	 0.81103714693855 
766	 0.814622569113559 
767	 0.819234572913536 
768	 0.820549746871541 
769	 0.821510785210908 
770	 0.823726433674777 
771	 0.82429941089415 
772	 0.824790539885601 
773	 0.825026692023449 
774	 0.824678892547592 
775	 0.825828910501718 
776	 0.826648398174858 
777	 0.826776260767404 
778	 0.827263737783548 
779	 0.828168697321864 
780	 0.82788685321663 
781	 0.826628465706282 
782	 0.828335582539707 
783	 0.827649383319063 
784	 0.826649418020376 
785	 0.828087198912308 
786	 0.828173588628001 
787	 0.827214000354402 
788	 0.825964914977285 
789	 0.825456476209605 
790	 0.825599572386517 
791	 0.826354350771655 
792	 0.827545217829456 
793	 0.828883277404813 
794	 0.829136594951895 
795	 0.828978624190224 
796	 0.829116377193343 
797	 0.82924717719141 
798	 0.829527154311143 
799	 0.829814210726765 
800	 0.829708556499315 
801	 0.82788230776828 
802	 0.828202069962314 
803	 0.830421818748675 
804	 0.831299782934354 
805	 0.832968136054309 
806	 0.833613562095424 
807	 0.832792732217933 
808	 0.832396945312212 
809	 0.83194763444924 
810	 0.831146682151223 
811	 0.829781111017528 
812	 0.82783767367466 
813	 0.8258136305488 
814	 0.824733010626338 
815	 0.82534731487338 
816	 0.824860757794637 
817	 0.823861442357525 
818	 0.824318115450972 
819	 0.82803320976535 
820	 0.832426890745847 
821	 0.833007579742531 
822	 0.830260011974264 
823	 0.831291170705686 
824	 0.831607584788596 
825	 0.830994893778273 
826	 0.830541614857979 
827	 0.832267914753384 
828	 0.834423002354051 
829	 0.834831594561606 
830	 0.83290909693041 
831	 0.834680772476449 
832	 0.836329973058629 
833	 0.837853802237137 
834	 0.840747151304153 
835	 0.840440788299134 
836	 0.840733568550056 
837	 0.842059357435738 
838	 0.84148326045119 
839	 0.843195095149761 
840	 0.845242207249477 
841	 0.845937874276831 
842	 0.845619624913879 
843	 0.847351205334126 
844	 0.848984062562483 
845	 0.848641638562492 
846	 0.848906956321239 
847	 0.851158561825105 
848	 0.853343861458622 
849	 0.852960484113387 
850	 0.853211330516064 
851	 0.852308409895316 
852	 0.85100735944156 
853	 0.851595172419382 
854	 0.85364040624734 
855	 0.853697692665049 
856	 0.852664894221776 
857	 0.855189294520305 
858	 0.855428528248044 
859	 0.855574160394957 
860	 0.856982017332571 
861	 0.857998030778676 
862	 0.857007598936483 
863	 0.856330557499966 
864	 0.857869934082941 
865	 0.860425056779509 
866	 0.859310218777112 
867	 0.857156983609673 
868	 0.857834379486996 
869	 0.859968813962371 
870	 0.861011699537081 
871	 0.860619859023289 
872	 0.859800763888055 
873	 0.860241717337862 
874	 0.860009298537826 
875	 0.859993250171206 
876	 0.862127373471281 
877	 0.860657994668157 
878	 0.859659451281586 
879	 0.86052167481925 
880	 0.861265732540856 
881	 0.862863886197292 
882	 0.862035746639914 
883	 0.859293713044812 
884	 0.860282824148726 
885	 0.860949512516956 
886	 0.861643962438923 
887	 0.86227746615365 
888	 0.860704083243141 
889	 0.8611592745692 
890	 0.862756476275942 
891	 0.86289011849629 
892	 0.857842810619791 
893	 0.855823218395195 
894	 0.856684585362186 
895	 0.856942709574099 
896	 0.853774153073973 
897	 0.850578594207166 
898	 0.849379171931787 
899	 0.850697075269193 
900	 0.853470310029444 
901	 0.851197743606622 
902	 0.848504482669232 
903	 0.851919729913665 
904	 0.855577284960291 
905	 0.854474496367863 
906	 0.850950815999475 
907	 0.85056729838414 
908	 0.850459009594187 
909	 0.849698356304085 
910	 0.845991991108688 
911	 0.838857967011814 
912	 0.843935958223351 
913	 0.849955498284543 
914	 0.848951456130163 
915	 0.841267103387741 
916	 0.847257533409292 
917	 0.8524811999028 
918	 0.849900654358885 
919	 0.843545261607705 
920	 0.847685545256008 
921	 0.854950839698688 
922	 0.85662026349886 
923	 0.846706339900245 
924	 0.846849412223863 
925	 0.846998408741319 
926	 0.842449441832259 
927	 0.843162117816024 
928	 0.840832677991536 
929	 0.837462243616309 
930	 0.834871667566247 
931	 0.829723826138004 
932	 0.841872721408675 
933	 0.837112001073064 
934	 0.804808637410776 
935	 0.815928120139083 
936	 0.864967698289715 
937	 0.866809757672656 
938	 0.817720846751945 
939	 0.79977156929815 
940	 0.822626551592412 
941	 0.819903015601059 
942	 0.797885036988097 
943	 0.85388866829274 
944	 0.844982519240834 
945	 0.81814357342612 
946	 0.810878834896246 
947	 0.804139916238916 
948	 0.824281358128813 
949	 0.813076150717871 
950	 0.777897345512059 
951	 0.789313403693117 
952	 0.809205441936649 
953	 0.837737213891983 
954	 0.843990492081814 
955	 0.786002403834414 
956	 0.827901258223547 
957	 0.866896681467684 
958	 0.845088166157679 
959	 0.793026036043853 
960	 0.802866342849622 
961	 0.810463694183047 
962	 0.80800113967993 
963	 0.828033269157333 
964	 0.839184449401526 
965	 0.819887992336886 
966	 0.808733822564629 
967	 0.848961197323321 
968	 0.838103929361675 
969	 0.822554786770029 
970	 0.827409265947791 
971	 0.847847654076727 
972	 0.824806808652359 
973	 0.821516919709952 
974	 0.842478511103522 
975	 0.856764851653947 
976	 0.848965998643203 
977	 0.827517031123236 
978	 0.825404556269916 
979	 0.853704054888993 
980	 0.834507318490657 
981	 0.829560908170674 
982	 0.843283755847882 
983	 0.856785515347583 
984	 0.840542683711612 
985	 0.843973376621379 
986	 0.850378286148958 
987	 0.844747450246794 
988	 0.845831455946545 
989	 0.84751725269366 
990	 0.850257348500936 
991	 0.850706974723744 
992	 0.841435181426389 
993	 0.854907581641127 
994	 0.856163605747608 
995	 0.840792194066235 
996	 0.846096119259949 
997	 0.862926490575042 
998	 0.873208144222626 
999	 0.869397806356806 
1000	 0.857633810295253 
1001	 0.939619351841052 
1002	 0.935575438505149 
1003	 0.92209120236646 
1004	 0.916124085244245 
1005	 0.906615817115329 
1006	 0.903192832669669 
1007	 0.905673931282848 
1008	 0.904711701473922 
1009	 0.905919820640017 
1010	 0.900078999000299 
1011	 0.899657759421622 
1012	 0.909350678216181 
1013	 0.915188193701981 
1014	 0.924529730419304 
1015	 0.933076470540467 
1016	 0.931830191226266 
1017	 0.929476995042365 
1018	 0.92575577458694 
1019	 0.918869055385152 
1020	 0.903688043470003 
1021	 0.896745618817529 
1022	 0.886659521702007 
1023	 0.886745530507658 
1024	 0.895779961950381 
1025	 0.90353750820087 
1026	 0.916235231225815 
1027	 0.926050786534856 
1028	 0.926145775192037 
1029	 0.921604947912998 
1030	 0.906569204283789 
1031	 0.89960566012839 
1032	 0.898162371775108 
1033	 0.898215343839508 
1034	 0.903008668295626 
1035	 0.921014327715522 
1036	 0.924851450166416 
1037	 0.923287444062151 
1038	 0.925507810895114 
1039	 0.922435303675784 
1040	 0.918531880191283 
1041	 0.920779886688049 
1042	 0.924824801206965 
1043	 0.920877237527195 
1044	 0.919113150450663 
1045	 0.916995507180496 
1046	 0.901865211876872 
1047	 0.898724818366734 
1048	 0.907249878168538 
1049	 0.911500644383683 
1050	 0.925097217099705 
1051	 0.929066730470233 
1052	 0.928341050057808 
1053	 0.922103637801266 
1054	 0.91596148527942 
1055	 0.912800008272247 
1056	 0.916615221502035 
1057	 0.917268107640348 
1058	 0.915852704839277 
1059	 0.914494026536826 
1060	 0.911531409685746 
1061	 0.906341867557431 
1062	 0.900183866678852 
1063	 0.897007621627826 
1064	 0.89821037190719 
1065	 0.903395953385617 
1066	 0.909503931460705 
1067	 0.911595755630299 
1068	 0.915699114559615 
1069	 0.917317400212598 
1070	 0.917039020550784 
1071	 0.923207772871356 
1072	 0.922009017405521 
1073	 0.918872085437273 
1074	 0.919604483440465 
1075	 0.918247067454992 
1076	 0.921787018209331 
1077	 0.924555237383689 
1078	 0.927755795744629 
1079	 0.926100209789742 
1080	 0.920063360719966 
1081	 0.915631884860903 
1082	 0.913362423082743 
1083	 0.903128671774121 
1084	 0.902950717155253 
1085	 0.902183102470934 
1086	 0.900358335892192 
1087	 0.903999091927737 
1088	 0.907278477724762 
1089	 0.908185624580598 
1090	 0.901840597784554 
1091	 0.905517524391366 
1092	 0.90833881586188 
1093	 0.910055087984383 
1094	 0.92718597611369 
1095	 0.934733927006139 
1096	 0.937155470215086 
1097	 0.931823483647461 
1098	 0.928697853190099 
1099	 0.921462564800032 
1100	 0.913924239999059 
1101	 0.902197716448538 
1102	 0.900425998064812 
1103	 0.905551930357693 
1104	 0.916178184628892 
1105	 0.941199705541645 
1106	 0.951742624579582 
1107	 0.952427097640284 
1108	 0.943197229694097 
1109	 0.927955445859994 
1110	 0.913614403821209 
1111	 0.887248687065911 
1112	 0.869126402705314 
1113	 0.850235814004504 
1114	 0.852582952457559 
1115	 0.833340815639097 
1116	 0.853295032615233 
1117	 0.89701610500186 
1118	 0.852871455566923 
1119	 0.860725379088399 
1120	 0.914510755754855 
1121	 0.865420189801173 
1122	 0.912667964358036 
1123	 0.972792768459765 
1124	 0.826557327071461 
1125	 0.773766973434023 
1126	 0.794182278029937 
1127	 0.857740971165098 
1128	 1.1011165305606 
1129	 1.23004507767072 
1130	 1.39445013527832 
1131	 1.3214441068629 
1132	 1.16368094201338 
1133	 0.918479948232799 
1134	 0.825481459828912 
1135	 0.828011921334295 
1136	 0.791425180299015 
1137	 0.836192869983026 
1138	 0.871935148302053 
1139	 0.796517464265065 
1140	 0.839389965936351 
1141	 0.863430866418911 
1142	 0.853759536309797 
1143	 0.839828858684263 
1144	 0.868643959358654 
1145	 0.864850209802778 
1146	 0.875917178214859 
1147	 0.974370042348558 
1148	 0.980601282300867 
1149	 0.87181287494792 
1150	 0.862672003538738 
1151	 0.858208143509963 
1152	 0.841219539652276 
1153	 0.858648139329401 
1154	 0.85674390014574 
1155	 0.839532513704333 
1156	 0.827578283733446 
1157	 0.846782587285586 
1158	 0.885446409330713 
1159	 0.894721311076135 
1160	 0.905601351314755 
1161	 0.905506315619793 
1162	 0.885825781644912 
1163	 0.876472155536664 
1164	 0.866802327214833 
1165	 0.867805275759033 
1166	 0.877007139304691 
1167	 0.881804369442529 
1168	 0.879885854394685 
1169	 0.878914173492136 
1170	 0.862206426169361 
1171	 0.844318087897339 
1172	 0.850826481247097 
1173	 0.86158144096656 
1174	 0.864243378197139 
1175	 0.877016922028355 
1176	 0.877869840260947 
1177	 0.860299023127992 
1178	 0.856853081687738 
1179	 0.856618962825468 
1180	 0.857564478880793 
1181	 0.867894089874638 
1182	 0.87021430515239 
1183	 0.869466868622786 
1184	 0.865958077809913 
1185	 0.870032203183273 
1186	 0.874550013871678 
1187	 0.87894132313775 
1188	 0.886770753180937 
1189	 0.876380329418159 
1190	 0.864323904670875 
1191	 0.861951366145916 
1192	 0.858705286822849 
1193	 0.858072375126922 
1194	 0.865319487359151 
1195	 0.865670778499137 
1196	 0.864856261593883 
1197	 0.860070708374966 
1198	 0.849400627426288 
1199	 0.844484221406362 
1200	 0.837702431436386 
1201	 0.834783810089968 
1202	 0.834865341804562 
1203	 0.838409832894162 
1204	 0.851926894737872 
1205	 0.853712598114912 
1206	 0.855923440126631 
1207	 0.856611878164542 
1208	 0.849934053783258 
1209	 0.846397518867539 
1210	 0.845153287749102 
1211	 0.849326753313986 
1212	 0.852435656824356 
1213	 0.856309364715532 
1214	 0.856620125570876 
1215	 0.853422669571319 
1216	 0.854454866298542 
1217	 0.853104324749557 
1218	 0.857999251892326 
1219	 0.873744608170383 
1220	 0.881278895295618 
1221	 0.889618129312138 
1222	 0.891412831695929 
1223	 0.885415803278082 
1224	 0.882406147815439 
1225	 0.883029481411829 
1226	 0.877186669804564 
1227	 0.876418456753454 
1228	 0.877703168176561 
1229	 0.878039408189211 
1230	 0.879869822379852 
1231	 0.878900984130557 
1232	 0.874182722366247 
1233	 0.874261258463991 
1234	 0.87444012136752 
1235	 0.875155597085711 
1236	 0.881533068975201 
1237	 0.884597804496502 
1238	 0.883830302262587 
1239	 0.885100646765132 
1240	 0.886699777625653 
1241	 0.888164149604207 
1242	 0.892326449914883 
1243	 0.892543891954697 
1244	 0.888994117340844 
1245	 0.890609099308303 
1246	 0.887094677499527 
1247	 0.879207274957753 
1248	 0.876008194905584 
1249	 0.872849896312247 
1250	 0.873062846616606 
1251	 0.878233090900001 
1252	 0.879826541877331 
1253	 0.880656600985674 
1254	 0.881969358176762 
1255	 0.882082831534355 
1256	 0.883513451450279 
1257	 0.886380909647326 
1258	 0.890755293708121 
1259	 0.898865346222052 
1260	 0.901142532325355 
1261	 0.902619330868744 
1262	 0.902917808920554 
1263	 0.897997010632522 
1264	 0.891125845406287 
1265	 0.891175755072297 
1266	 0.887829027257251 
1267	 0.88064357182994 
1268	 0.870476109138707 
1269	 0.86807752174055 
1270	 0.867067253168264 
1271	 0.866973180965065 
1272	 0.874024464842695 
1273	 0.87705431817299 
1274	 0.875939605238228 
1275	 0.877745696856374 
1276	 0.88365467868767 
1277	 0.885098915108782 
1278	 0.882935037911125 
1279	 0.884154898276877 
1280	 0.887091714493343 
1281	 0.886780146703739 
1282	 0.88817471473764 
1283	 0.887304720404669 
1284	 0.882318124157285 
1285	 0.876696843358462 
1286	 0.874136486216045 
1287	 0.865554359596493 
1288	 0.862050181207091 
1289	 0.863152360129817 
1290	 0.864818288848917 
1291	 0.872652705006142 
1292	 0.87493175918295 
1293	 0.876222967558213 
1294	 0.874200355736287 
1295	 0.867274933260515 
1296	 0.865644658584227 
1297	 0.86351761519658 
1298	 0.864235527649097 
1299	 0.868443811421129 
1300	 0.872049042785159 
1301	 0.881033311415382 
1302	 0.882727901194386 
1303	 0.880863047471752 
1304	 0.880106667748269 
1305	 0.873448596081272 
1306	 0.867115267874354 
1307	 0.85840924166211 
1308	 0.856501933248409 
1309	 0.855355349055702 
1310	 0.854675060658684 
1311	 0.85990242482262 
1312	 0.86636438788487 
1313	 0.872185065102964 
1314	 0.878785483284271 
1315	 0.877213916777768 
1316	 0.87351243062367 
1317	 0.869183895248074 
1318	 0.849487804998757 
1319	 0.848758947518403 
1320	 0.862843678780894 
1321	 0.86960052955099 
1322	 0.884820398231924 
1323	 0.892451293256854 
1324	 0.894162679579233 
1325	 0.891390133917206 
1326	 0.88282985980137 
1327	 0.873837390979168 
1328	 0.847128608917466 
1329	 0.83707352078804 
1330	 0.838204713244691 
1331	 0.840905947533409 
1332	 0.872818643467522 
1333	 0.882401157924395 
1334	 0.902666843881355 
1335	 0.913697327877267 
1336	 0.907464663353618 
1337	 0.888767489645022 
1338	 0.874768585042648 
1339	 0.840805919968391 
1340	 0.81276054018402 
1341	 0.780593290202077 
1342	 0.753740565825928 
1343	 0.693452246139652 
1344	 0.693746853339375 
1345	 0.79351000074088 
1346	 0.852104298193021 
1347	 0.974776007096451 
1348	 1.19171517213268 
1349	 1.51772554520056 
1350	 3.54593072608809 
1351	-1.74457623554424 
1352	-0.910497319899005 
1353	-1.94528136414524 
1354	-2.3545743490801 
1355	-4.09299079805761 
1356	-5.84381665042268 
1357	-2.96499589448896 
1358	-2.51950915440413 
1359	-3.23430419402738 
1360	-2.03792086628306 
1361	-1.95428106819191 
1362	-1.89617368510719 
1363	-3.2171426003219 
1364	 1.58683990440997 
1365	 0.247242656180148 
1366	 0.398501372923441 
1367	 0.518363247866003 
1368	 0.669440280483447 
1369	 1.17432391628644 
1370	-5.654028308069 
1371	-2.91091333497013 
1372	-7.11795103418276 
1373	-4.62808352382193 
1374	-2.13459879588914 
1375	-1.47440288560136 
1376	-1.00945686542626 
1377	-0.740735328400427 
1378	-1.01065917839254 
1379	-0.766801937309432 
1380	-2.85883309706096E-02 
1381	 0.13490025593507 
1382	-3.48183897948249E-02 
1383	-0.143330595011827 
1384	-0.360871543615317 
1385	-1.17828199770593 
1386	 6.08646957213717 
1387	 1.43751994756156 
1388	 1.50315033998955 
1389	 3.09041669893238 
1390	 37.3100960258059 
1391	-1.08625283710138 
1392	-0.799013357359778 
1393	-0.485522802260283 
1394	-0.450375153822656 
1395	-1.22044681042626 
1396	-2.07729841178546 
1397	 8.10188057714802 
1398	-36.8612424887153 
1399	-0.852278526401432 
1400	-0.884237564310975 
1401	-1.07157270725671 
1402	-0.957061012800172 
1403	-0.873168074273306 
1404	-1.08971647431758 
1405	-1.32435928735335 
1406	-1.90307971614148 
1407	 6.74010352113857 
1408	 2.83720556838113 
1409	 1.06775653402468E-02 
1410	-3.91205052099675 
1411	-0.831828790584107 
1412	-0.756763918784602 
1413	 0.386241183396249 
1414	 0.726289321268701 
1415	 1.10143536720823 
1416	 2.03072326284437 
1417	-4.22025587084415 
1418	-2.55655234616079 
1419	 3.01167489745844 
1420	 1.82926514323535 
1421	-0.441360500787145 
1422	-0.64875463351731 
1423	-0.371829728042448 
1424	-9.03002504222142E-02 
1425	 2.72148769152961E-02 
1426	 0.382395301374863 
1427	 0.53734249334315 
1428	 0.735905050602291 
1429	 1.07900797316365 
1430	 1.46427935044645 
1431	 1.33176138112133 
1432	 1.07594884556942 
1433	 0.847930511130023 
1434	 0.532369283675968 
1435	 0.475849404287539 
1436	 0.340518720259114 
1437	 0.339236126982196 
1438	 0.643523006673286 
1439	 1.22443202779147 
1440	-4.4079812766376 
1441	-2.49143524281898 
1442	-9.47307842211837 
1443	-20.8575381503425 
1444	 1.57515362361477 
1445	 0.675164421284118 
1446	 0.451010054804013 
1447	 7.52401925162024E-03 
1448	-0.496451678292337 
1449	-0.41545588872292 
1450	-0.404870741129028 
1451	-0.336583516790195 
1452	 2.18054982558653E-03 
1453	 6.27174952078286E-02 
1454	-2.74414626967418E-02 
1455	-2.02891704345897E-02 
1456	-3.45257303648276E-02 
1457	-3.30231793805785E-02 
1458	 0.039396462124146 
1459	 0.215106842759286 
1460	 0.265305807546561 
1461	 0.209843062701207 
1462	 0.267308016017659 
1463	 0.405819669197234 
1464	 0.412954431340206 
1465	 0.385867378890423 
1466	 0.411392766618463 
1467	 0.345183768697389 
1468	 0.386325166305261 
1469	 0.583773369842334 
1470	 0.724634609075286 
1471	 0.887881689094716 
1472	 1.03392229061328 
1473	 1.56075470453031 
1474	 1.43712728339356 
1475	 0.89869000972265 
1476	 0.687382917077422 
1477	 0.409792729583107 
1478	 0.367873899426714 
1479	 0.449260853752222 
1480	 0.453643192790732 
1481	 0.476340877749736 
1482	 0.529024672471644 
1483	 0.641339042968697 
1484	 0.584732079707064 
1485	 0.497961553037352 
1486	 0.443558827168894 
1487	 0.278986132245168 
1488	 0.247337702129696 
1489	 0.308406289268864 
1490	 0.315153650934913 
1491	 0.336210917262471 
1492	 0.33770556699244 
1493	 0.285949676949714 
1494	 0.288423135735867 
1495	 0.32487672300897 
1496	 0.335654914585743 
1497	 0.35889613136627 
1498	 0.368672830688204 
1499	 0.361682446871461 
1500	 0.357308193676156 
1501	 0.33772814481017 
1502	 0.317775700907278 
1503	 0.309266858920598 
1504	 0.304290055162781 
1505	 0.318295949617683 
1506	 0.359437912610196 
1507	 0.366590061881798 
1508	 0.368083536522783 
1509	 0.371643448634125 
1510	 0.366635753107003 
1511	 0.35903083672072 
1512	 0.348553106885325 
1513	 0.35549694694565 
1514	 0.362524313551518 
1515	 0.368680446626684 
1516	 0.395608206289305 
1517	 0.399112889242263 
1518	 0.385823830051467 
1519	 0.377007421770149 
1520	 0.364733096082371 
1521	 0.357146070656404 
1522	 0.34180502242342 
1523	 0.341853777626759 
1524	 0.354245633569619 
1525	 0.358618151579046 
1526	 0.373974174678735 
1527	 0.370616055362564 
1528	 0.340579972916665 
1529	 0.347519217390436 
1530	 0.368056095649732 
1531	 0.379597887592362 
1532	 0.417778184434082 
1533	 0.429794939527579 
1534	 0.412847190783156 
1535	 0.411949527587045 
1536	 0.412352115596566 
1537	 0.414154234128804 
1538	 0.426452072583385 
1539	 0.425014512278483 
1540	 0.415420253485003 
1541	 0.408856739633328 
1542	 0.386812895386177 
1543	 0.385891081107758 
1544	 0.404866288235015 
1545	 0.410999758253061 
1546	 0.424666448582347 
1547	 0.429173443382228 
1548	 0.410995395462165 
1549	 0.412327738188312 
1550	 0.423393049288727 
1551	 0.433126375465857 
1552	 0.461756153213806 
1553	 0.472156716563832 
1554	 0.467652736308719 
1555	 0.468483446392188 
1556	 0.462033575630964 
1557	 0.457023377622733 
1558	 0.459824446723064 
1559	 0.454753693018212 
1560	 0.439014945818013 
1561	 0.430741995645395 
1562	 0.422782156932303 
1563	 0.414222223018271 
1564	 0.420802278802838 
1565	 0.42274595206635 
1566	 0.427443033743083 
1567	 0.44446138613665 
1568	 0.450822685378853 
1569	 0.458390407265952 
1570	 0.464786092892488 
1571	 0.462806890670109 
1572	 0.475478643587255 
1573	 0.483927600314849 
1574	 0.485649482953591 
1575	 0.493602177273871 
1576	 0.492587321292527 
1577	 0.491594794766015 
1578	 0.488568678860293 
1579	 0.48554549012473 
1580	 0.489347111861343 
1581	 0.485774890702887 
1582	 0.482174672933531 
1583	 0.482465448992799 
1584	 0.481159286628428 
1585	 0.482581885341773 
1586	 0.483439988381237 
1587	 0.489780833539067 
1588	 0.4910843187377 
1589	 0.486955511792207 
1590	 0.489159927025609 
1591	 0.497983768489597 
1592	 0.49509173583001 
1593	 0.483767802591678 
1594	 0.488100536328751 
1595	 0.494022524236385 
1596	 0.496969890175866 
1597	 0.511512276451644 
1598	 0.517338608560162 
1599	 0.512881679940297 
1600	 0.512044683055111 
1601	 0.517489658026766 
1602	 0.515853083417345 
1603	 0.501596941322269 
1604	 0.504027407484688 
1605	 0.514149569492938 
1606	 0.517391131404823 
1607	 0.52814865954005 
1608	 0.526134183812507 
1609	 0.51182751282021 
1610	 0.511057539583993 
1611	 0.510182494809188 
1612	 0.516243433667645 
1613	 0.533124303708409 
1614	 0.540244872068319 
1615	 0.54794380764665 
1616	 0.549453549118861 
1617	 0.544564785692751 
1618	 0.542696567806605 
1619	 0.53967561377547 
1620	 0.53551052991465 
1621	 0.529882097835583 
1622	 0.52765582716158 
1623	 0.522649045025911 
1624	 0.526530976820748 
1625	 0.537267916615264 
1626	 0.54474473475448 
1627	 0.558416985040921 
1628	 0.5634992011851 
1629	 0.567760468320511 
1630	 0.560387912290994 
1631	 0.539909342546538 
1632	 0.532021529102139 
1633	 0.519561603381296 
1634	 0.51761690832227 
1635	 0.528662420244149 
1636	 0.533703281335187 
1637	 0.538035282058873 
1638	 0.542202341223975 
1639	 0.547413358023964 
1640	 0.552750107063788 
1641	 0.55609744160661 
1642	 0.564358510450371 
1643	 0.577641955999756 
1644	 0.587506566777505 
1645	 0.601915340068987 
1646	 0.603067957624322 
1647	 0.593661961567121 
1648	 0.59032175069293 
1649	 0.58358341810542 
1650	 0.575587079827098 
1651	 0.569126761062158 
1652	 0.567368937641362 
1653	 0.558388083049097 
1654	 0.567380965360693 
1655	 0.596179413880272 
1656	 0.602060626901488 
1657	 0.609018887421241 
1658	 0.603591931241213 
1659	 0.579387952504126 
1660	 0.56544997564958 
1661	 0.553097456588285 
1662	 0.542759360586675 
1663	 0.530305303165139 
1664	 0.527777801315573 
1665	 0.52492528387304 
1666	 0.518830637100978 
1667	 0.525022009240953 
1668	 0.548004733861951 
1669	 0.551852878175813 
1670	 0.557103417938254 
1671	 0.569960968546185 
1672	 0.564513014974626 
1673	 0.56749902436122 
1674	 0.573856297228144 
1675	 0.575923277261102 
1676	 0.576786570576714 
1677	 0.565529626616477 
1678	 0.556260820543781 
1679	 0.561896786305081 
1680	 0.56452419430974 
1681	 0.567313997696673 
1682	 0.582037484336229 
1683	 0.587709908987106 
1684	 0.597491501464473 
1685	 0.616504530780087 
1686	 0.62116558670606 
1687	 0.621603382227895 
1688	 0.613534612018211 
1689	 0.609251739925131 
1690	 0.6116268048729 
1691	 0.598726209866344 
1692	 0.597202373456419 
1693	 0.597906973717849 
1694	 0.593263846279628 
1695	 0.609303280254664 
1696	 0.622972521422713 
1697	 0.622595503764584 
1698	 0.621089682405409 
1699	 0.610604721468484 
1700	 0.607775646265704 
1701	 0.614627664349959 
1702	 0.612491590594812 
1703	 0.611511047989989 
1704	 0.588751725748663 
1705	 0.569240392959763 
1706	 0.57542512119587 
1707	 0.577069270419076 
1708	 0.595463649985131 
1709	 0.60529553808476 
1710	 0.599822222811196 
1711	 0.615492931399828 
1712	 0.619069397212951 
1713	 0.613119175379063 
1714	 0.604281408269223 
1715	 0.575592292320258 
1716	 0.547321972156443 
1717	 0.536770358392282 
1718	 0.551746657035968 
1719	 0.576974688557637 
1720	 0.596356880583806 
1721	 0.601477016408938 
1722	 0.578310802636535 
1723	 0.575619910524317 
1724	 0.57871502562853 
1725	 0.590201692344571 
1726	 0.619422214142812 
1727	 0.624432883469789 
1728	 0.62246698918487 
1729	 0.622752394448085 
1730	 0.611315521438204 
1731	 0.602719484335171 
1732	 0.601591391469618 
1733	 0.595045118474452 
1734	 0.56994677548917 
1735	 0.569255792118258 
1736	 0.584501638063092 
1737	 0.582755532618932 
1738	 0.5903385319491 
1739	 0.573235830638671 
1740	 0.571737250313717 
1741	 0.570731570640014 
1742	 0.548846409846086 
1743	 0.533580140568765 
1744	 0.515007683087719 
1745	 0.519149759769436 
1746	 0.547639423537224 
1747	 0.570580581139019 
1748	 0.589567979922324 
1749	 0.605396311443398 
1750	 0.617775255737524 
1751	 0.62236340847853 
1752	 0.627471503887077 
1753	 0.644000327716278 
1754	 0.631364422715066 
1755	 0.61569901564605 
1756	 0.609152713444688 
1757	 0.558941529120723 
1758	 0.51371024069802 
1759	 0.507195312309201 
1760	 0.535253250539617 
1761	 0.55355394319172 
1762	 0.590685582524579 
1763	 0.619456667305057 
1764	 0.562746989736872 
1765	 0.550677735657787 
1766	 0.542358835604581 
1767	 0.513991804989767 
1768	 0.553700021182223 
1769	 0.580779679304207 
1770	 0.645502080124098 
1771	 0.702800024637748 
1772	 0.707360755005383 
1773	 0.74017875350904 
1774	 0.717301804514732 
1775	 0.73025833789314 
1776	 0.766895844363953 
1777	 0.692460649357652 
1778	 0.663169945129657 
1779	 0.525074066754097 
1780	 0.659056887352688 
1781	 0.80975960059922 
1782	 0.882351945517804 
1783	 0.997983896408312 
1784	 0.907607134140344 
1785	 0.776457197989066 
1786	 0.809076944458246 
1787	 0.773878892208855 
1788	 0.765273467118739 
1789	 0.800205505721432 
1790	 0.602685016105305 
1791	 0.450076372241502 
1792	 0.468879307130206 
1793	 0.703170497257897 
1794	 0.975633772965759 
1795	 1.34171467537309 
1796	 1.7464029439546 
1797	 1.80279867011998 
1798	 3.75853071705249 
1799	-3.75888533976616 
1800	-4.15660311751068 
1801	 1.47675874230571 
1802	 1.47995947573628 
1803	 1.17214050990022 
1804	 1.09123542829266 
1805	 1.1190959200794 
1806	 1.37302390116848 
1807	 1.31292672778466 
1808	 1.0113304079033 
1809	 0.991145517340072 
1810	 1.02870425305598 
1811	 0.907584796837878 
1812	 0.932902089447394 
1813	 0.922898866326735 
1814	 0.574663457276747 
1815	 0.552111159726937 
1816	 0.884590525417653 
1817	 1.11137377426239 
1818	 1.22976531715697 
1819	 1.41460082515507 
1820	 1.51783786964552 
1821	 1.36562883594102 
1822	 1.25608478559917 
1823	 1.1431265883508 
1824	 1.10687390727072 
1825	 1.06191492376218 
1826	 0.943142050973883 
1827	 0.954995218980059 
1828	 1.12857825101665 
1829	 1.19303661313706 
1830	 1.24481819313455 
1831	 1.27486832529969 
1832	 1.20350482424025 
1833	 1.24893317004496 
1834	 1.53349304790057 
1835	 1.58101883931896 
1836	 1.53594841193284 
1837	 1.55748089118754 
1838	 1.40682590746656 
1839	 0.970154995745595 
1840	 0.957232768056947 
1841	 1.10203253901809 
1842	 1.15234801253227 
1843	 1.48462736648632 
1844	 1.52258578178854 
1845	 1.3503593170324 
1846	 1.11923063279011 
1847	 0.973081963860841 
1848	 0.773287673224608 
1849	 0.719494779146223 
1850	 0.712591022632969 
1851	 0.715018922368243 
1852	 0.883639064708474 
1853	 0.852236017020455 
1854	 0.609951878224724 
1855	 0.582746255351592 
1856	 0.592694584179482 
1857	 0.532154052932678 
1858	 0.64082558837907 
1859	 1.25400332297375 
1860	 1.43514550176739 
1861	 1.45899883567327 
1862	 1.40198006492795 
1863	 0.90339170310975 
1864	 0.826602930657259 
1865	 0.972739097287668 
1866	 0.970573484329551 
1867	 0.952866099265005 
1868	 1.00139414584646 
1869	 0.998658243416503 
1870	 0.853098994677387 
1871	 0.765499723647992 
1872	 0.632705045707152 
1873	 0.674692296877384 
1874	 0.804419007861371 
1875	 0.859486495270799 
1876	 1.02428488104299 
1877	 1.1650165175089 
1878	 1.26418333620851 
1879	 1.35495499904184 
1880	 1.337734431406 
1881	 1.26363236990817 
1882	 1.17417619906922 
1883	 0.917692126644091 
1884	 0.772600561327157 
1885	 0.59639038803297 
1886	 0.614893195825852 
1887	 0.735297743582986 
1888	 0.906054130470705 
1889	 1.03492414174847 
1890	 1.43761789697353 
1891	 1.50850617874407 
1892	 1.23955509055035 
1893	 1.18416365811279 
1894	 1.08163159735021 
1895	 1.02069077608418 
1896	 1.04710322441974 
1897	 1.08269773421395 
1898	 1.20225933289838 
1899	 1.20350301491644 
1900	 1.1905057143991 
1901	 1.22439262936316 
1902	 1.16741074436634 
1903	 0.94918383636981 
1904	 0.871920665252073 
1905	 0.780215795582489 
1906	 0.735557474796675 
1907	 0.723090203271256 
1908	 0.825151736438058 
1909	 0.874067713182748 
1910	 0.913671772846023 
1911	 0.960360023462457 
1912	 0.97102948188432 
1913	 1.00236397095849 
1914	 1.16695885108973 
1915	 1.13985254277165 
1916	 1.01802551378952 
1917	 0.849598243968863 
1918	 0.532810085560239 
1919	 0.494273093779498 
1920	 0.572207286135385 
1921	 0.625817450831926 
1922	 0.654543378330874 
1923	 0.720450016709203 
1924	 0.683475437115837 
1925	 0.586352505919019 
1926	 0.516920220764378 
1927	 0.307598365100091 
1928	 0.31867748595519 
1929	 0.493021493333336 
1930	 0.73828281125436 
1931	 1.08012000940686 
1932	 1.07335340395137 
1933	 0.995989997282583 
1934	 0.925339285618194 
1935	 1.00943621245712 
1936	 1.31450402177307 
1937	 1.50750460320163 
1938	 1.90703960295785 
1939	 2.2418518719079 
1940	 2.42307445937074 
1941	 3.63069371919532 
1942	 4.5107499958227 
1943	 2.95595892422319 
1944	 1.89856038516431 
1945	 1.41750802062735 
1946	 1.23185582357974 
1947	 0.92752735684719 
1948	 0.866884356514978 
1949	 1.14619488389692 
1950	 1.14711220069497 
1951	 0.982717035219081 
1952	 1.02030393319098 
1953	 1.19408146129537 
1954	 0.985279054946846 
1955	 0.988772936481604 
1956	 1.05983196419847 
1957	 0.968424888110728 
1958	 0.786527599536187 
1959	 0.73638494910919 
1960	 0.768847674214475 
1961	 0.742126788846262 
1962	 0.699645700760756 
1963	 0.700015154360541 
1964	 0.717656122452155 
1965	 0.677962160365264 
1966	 0.688363517653039 
1967	 0.753276841744072 
1968	 0.811882255810763 
1969	 0.746309224963642 
1970	 0.767249326800596 
1971	 0.855869634590493 
1972	 0.835023194398977 
1973	 0.806854470650151 
1974	 0.787380258924841 
1975	 0.622587824344491 
1976	 0.582237068934662 
1977	 0.619810517728326 
1978	 0.674914562148713 
1979	 0.671062544124356 
1980	 0.75496403334119 
1981	 0.744578779446216 
1982	 0.67071234466717 
1983	 0.649466113970026 
1984	 0.57823160232236 
1985	 0.617698723770857 
1986	 0.774460110750084 
1987	 0.865150388572632 
1988	 1.01285148861223 
1989	 1.17995273704074 
1990	 0.946004638129735 
1991	 0.933319673955022 
1992	 0.928114914297163 
1993	 0.796388289540111 
1994	 0.788746567546341 
1995	 0.726490956198795 
1996	 0.684594174512984 
1997	 0.510405045756495 
1998	 0.453466026241936 
1999	 0.511798385274976 
2000	 0.532270698649875 
2001	 0.461803310386138 
2002	 0.698580656684769 
2003	 0.852898540619199 
2004	 1.09948777939749 
2005	 1.7937877391735 
2006	 1.30600447772598 
2007	 0.862784854796931 
2008	 0.720207750072374 
2009	 0.685164993389724 
2010	 0.70597106518228 
2011	 0.821426770480808 
2012	 1.34024536234057 
2013	 1.64207403406671 
2014	 1.98161099114472 
2015	 1.95855281397735 
2016	 1.48388449037858 
2017	 1.38330921579781 
2018	 1.16170569317614 
2019	 0.857954122825213 
2020	 0.737301782089307 
2021	 0.574224905117902 
2022	 0.581722108376833 
2023	 0.711832559367189 
2024	 0.730174536015421 
2025	 0.753387436433748 
2026	 0.742813961271945 
2027	 0.697866812393702 
2028	 0.552121505259412 
2029	 0.451151102354098 
2030	 0.450185711174168 
2031	 0.468324805186097 
2032	 0.483631821373386 
2033	 0.537283629455196 
2034	 0.478443087203003 
2035	 0.405285549478103 
2036	 0.334459337397662 
2037	 0.324239711774421 
2038	 0.34363324896069 
2039	 0.387536281314941 
2040	 0.554877101451846 
2041	 0.696210670722649 
2042	 0.833201908939503 
2043	 0.99232446923572 
2044	 1.12121780580976 
2045	 1.18905762891313 
2046	 1.22285473958651 
2047	 1.13851022342032 
2048	 1.07331074705894 
2049	 1.04511207912058 
2050	 0.989365100376585 
2051	 0.924001517299674 
2052	 1.0087361739906 
2053	 1.32785361963919 
2054	 1.44196332220319 
2055	 1.60982293703878 
2056	 1.90500218792256 
2057	 1.34950978263734 
2058	 1.1712134297114 
2059	 1.00083446245875 
2060	 0.833794068019107 
2061	 0.877381681132712 
2062	 0.796705941993111 
2063	 0.718771760234853 
2064	 0.733588998590556 
2065	 0.805303434697949 
2066	 0.860665977100279 
2067	 0.86980894250973 
2068	 0.917538507618382 
2069	 0.826735321032652 
2070	 0.635168892086116 
2071	 0.548572022892716 
2072	 0.497067708649763 
2073	 0.419667893825226 
2074	 0.361785981544425 
2075	 0.374269200131159 
2076	 0.431861425620814 
2077	 0.450421195179244 
2078	 0.603297815564224 
2079	 0.799022174520219 
2080	 0.660754295073111 
2081	 0.590721367678475 
2082	 0.569554791300058 
2083	 0.46405280292091 
2084	 0.44323792886346 
2085	 0.498786804442945 
2086	 0.587966084295784 
2087	 0.61436134680056 
2088	 0.7778412820177 
2089	 0.913859045853134 
2090	 0.896845055035587 
2091	 0.7775346006764 
2092	 0.654902124157464 
2093	 0.497020468983991 
2094	 0.360440577659188 
2095	 0.327321875832897 
2096	 0.320226831158552 
2097	 0.37006006944791 
2098	 0.386602163762678 
2099	 0.394294075987309 
2100	 0.364666846696491 
2101	 0.372373942616487 
2102	 0.358981007604796 
2103	 0.409049864958496 
2104	 0.526416615249377 
2105	 0.52500308803236 
2106	 0.532167347380341 
2107	 0.639781272157288 
2108	 0.755794056857321 
2109	 0.797687536924185 
2110	 0.786963358635702 
2111	 0.754520712398886 
2112	 0.64765859003034 
2113	 0.580580846147569 
2114	 0.558689580499454 
2115	 0.627863310443476 
2116	 0.598626667764023 
2117	 0.533215365142447 
2118	 0.50191264534182 
2119	 0.417412143881047 
2120	 0.467730095343713 
2121	 0.489586430499365 
2122	 0.601284928155151 
2123	 0.694589087216921 
2124	 0.6881658691423 
2125	 0.691277473744744 
2126	 0.647286268542503 
2127	 0.563294520699039 
2128	 0.480446249081984 
2129	 0.373776511788282 
2130	 0.34053924191178 
2131	 0.389307613477167 
2132	 0.380572923870621 
2133	 0.406486521807996 
2134	 0.525195488365178 
2135	 0.585197132986507 
2136	 0.55414847458141 
2137	 0.695065747070804 
2138	 0.823268319466 
2139	 0.929563572226484 
2140	 1.08733068060615 
2141	 1.01257072230019 
2142	 0.868431323882337 
2143	 0.650066130580717 
2144	 0.622253682476133 
2145	 0.629115661126379 
2146	 0.560610525103395 
2147	 0.647424042429084 
2148	 0.671685061800335 
2149	 0.585042015072223 
2150	 0.539596961664179 
2151	 0.49876108153564 
2152	 0.43335377726479 
2153	 0.329778129382153 
2154	 0.306618590847332 
2155	 0.300160054430294 
2156	 0.380088276734152 
2157	 0.452352613814943 
2158	 0.452051303761789 
2159	 0.474445656288781 
2160	 0.463557098293904 
2161	 0.480845474817299 
2162	 0.544587380466347 
2163	 0.567723742421602 
2164	 0.619878266385562 
2165	 0.605352564217154 
2166	 0.461511038887185 
2167	 0.390397777868767 
2168	 0.293825037711385 
2169	 0.225537263186257 
2170	 0.286974737984484 
2171	 0.322751994470243 
2172	 0.398635498808333 
2173	 0.42478273335413 
2174	 0.380665039340756 
2175	 0.435450977061289 
2176	 0.533419304265908 
2177	 0.632466394970387 
2178	 0.757193817003881 
2179	 0.874169442881091 
2180	 0.779796921542884 
2181	 0.715649279510578 
2182	 0.658175710340782 
2183	 0.601688573905423 
2184	 0.694340585077267 
2185	 0.661355152847467 
2186	 0.664714541497762 
2187	 0.691698383432112 
2188	 0.604978759041038 
2189	 0.641859312130869 
2190	 0.624980820822783 
2191	 0.627875781573024 
2192	 0.615264488319143 
2193	 0.5111830161412 
2194	 0.517432000255657 
2195	 0.627108279166131 
2196	 0.610064401895741 
2197	 0.522809983277432 
2198	 0.634840048322622 
2199	 0.76494586843443 
2200	 0.895303205893681 
2201	 1.27995716495979 
2202	 1.35816915003917 
2203	 1.08064048916089 
2204	 0.924121526812553 
2205	 0.708486378701999 
2206	 0.575598194569691 
2207	 0.511822420014863 
2208	 0.482531975772661 
2209	 0.533699373334921 
2210	 0.597509804211872 
2211	 0.67499297553587 
2212	 0.783979041534086 
2213	 0.776363994993076 
2214	 0.734690905387171 
2215	 0.765620950384937 
2216	 0.74386374792451 
2217	 0.789454996624523 
2218	 1.03314122670065 
2219	 1.04662250402768 
2220	 0.947013649462088 
2221	 0.906723782742015 
2222	 0.766904521522989 
2223	 0.688484504079438 
2224	 0.727725703121481 
2225	 0.908669680653039 
2226	 1.13774550224614 
2227	 1.09983871176626 
2228	 0.913605204740577 
2229	 0.703695474130479 
2230	 0.515621651849518 
2231	 0.425568116802731 
2232	 0.503625800299993 
2233	 0.607649887070941 
2234	 0.694231802665385 
2235	 0.681690401508067 
2236	 0.643011300149347 
2237	 0.619565934745247 
2238	 0.617146877672471 
2239	 0.740223203927158 
2240	 0.809008204764259 
2241	 0.830351077666864 
2242	 0.802945931680259 
2243	 0.634278016873969 
2244	 0.581960668336409 
2245	 0.508145772488712 
2246	 0.531858794189368 
2247	 0.696254749960589 
2248	 0.767196908969663 
2249	 0.882005809016107 
2250	 0.895855574310285 
2251	 0.804117953740347 
2252	 0.72569237758939 
2253	 0.729497661130817 
2254	 0.67242586524151 
2255	 0.589680848040601 
2256	 0.500858141752516 
2257	 0.450178289811259 
2258	 0.412507665742409 
2259	 0.426182713198935 
2260	 0.531151383505981 
2261	 0.621627865686438 
2262	 0.623038870562756 
2263	 0.766372126741925 
2264	 0.868506895157687 
2265	 0.827854686703439 
2266	 0.896630263355167 
2267	 0.773733108473535 
2268	 0.660272698976306 
2269	 0.654348109769115 
2270	 0.580993851088798 
2271	 0.569602465615647 
2272	 0.671602162262345 
2273	 0.683879708073154 
2274	 0.660721209903336 
2275	 0.643654944265828 
2276	 0.585251510338235 
2277	 0.555649632002549 
2278	 0.477841551765109 
2279	 0.520629844493773 
2280	 0.703528554803339 
2281	 0.755012412261853 
2282	 1.02440059382562 
2283	 1.01252448918033 
2284	 0.715986627384224 
2285	 0.453817958450408 
2286	 0.368049471848099 
2287	 0.275161430349685 
2288	 0.249580074062651 
2289	 0.373062118469316 
2290	 0.535193762525462 
2291	 0.574096972624061 
2292	 0.628210860623886 
2293	 0.542842479930821 
2294	 0.485570051948057 
2295	 0.60517543401261 
2296	 0.578011505175727 
2297	 0.491554008921531 
2298	 0.450334171197575 
2299	 0.361146432963821 
2300	 0.296538829418367 
2301	 0.331381011619924 
2302	 0.370009896347685 
2303	 0.343436581042632 
2304	 0.469838628594343 
2305	 0.613735656274632 
2306	 0.603096237019543 
2307	 0.784027709945029 
2308	 0.838897990261768 
2309	 0.75630690072609 
2310	 0.668526156998262 
2311	 0.511261167531415 
2312	 0.466935667855579 
2313	 0.410899142062754 
2314	 0.452060620141077 
2315	 0.750650592139706 
2316	 0.828651212700069 
2317	 0.918599024847492 
2318	 0.849790294183147 
2319	 0.45023017034846 
2320	 0.343232436343039 
2321	 0.24421589981702 
2322	 0.256759524448928 
2323	 0.495610221487287 
2324	 0.669310584402004 
2325	 1.03537399806758 
2326	 1.19903909545957 
2327	 1.10019673846493 
2328	 1.0328249069685 
2329	 0.817719546385631 
2330	 0.648182729482357 
2331	 0.45036265550467 
2332	 0.342101003126393 
2333	 0.254034965953236 
2334	 0.268423907852086 
2335	 0.36068604438888 
2336	 0.533867600244534 
2337	 0.903227948796744 
2338	 0.92944599148199 
2339	 0.959384660284665 
2340	 1.05346428131841 
2341	 0.880382685308603 
2342	 0.754683058259585 
2343	 0.618225739773295 
2344	 0.563671079777406 
2345	 0.69159086123274 
2346	 0.934007542021032 
2347	 1.16062848804797 
2348	 1.06907137733934 
2349	 0.926042759335047 
2350	 0.855662174118501 
2351	 0.982946058080303 
2352	 1.38515460765402 
2353	 1.70346131288415 
2354	 2.10236878324314 
2355	 2.31337882858671 
2356	 1.79454456414642 
2357	 1.46891692277214 
2358	 0.904457445576706 
2359	 0.49667965116522 
2360	 0.400217242026107 
2361	 0.367234405482507 
2362	 0.328664820184981 
2363	 0.291908803864025 
2364	 0.319551762579154 
2365	 0.426677988989175 
2366	 0.732047826772829 
2367	 0.995766573363301 
2368	 1.21305150815693 
2369	 1.02857039413939 
2370	 0.494118847854697 
2371	 0.474071109706748 
2372	 0.650006899750788 
2373	 0.702531280138673 
2374	 0.953136476288748 
2375	 0.869291886801142 
2376	 0.621926696429971 
2377	 0.521353665334093 
2378	 0.347669340644898 
2379	 0.281574990888587 
2380	 0.27466079332259 
2381	 0.208592276423717 
2382	 0.124244124686117 
2383	 0.115795450921676 
2384	 0.106646107866082 
2385	 0.179784454419175 
2386	 0.602558687225022 
2387	 0.893384403105609 
2388	 1.25523398246463 
2389	 1.68600226829411 
2390	 0.944235874042297 
2391	 0.90541960409063 
2392	 1.07027747018778 
2393	 1.54775286735553 
2394	 2.95767093773755 
2395	 2.24834815494463 
2396	 1.86468769457277 
2397	 1.53345518261944 
2398	 1.0528381921164 
2399	 0.948757799947423 
2400	 0.905152649455195 
2401	 0.792402479777057 
2402	 0.672141161875638 
2403	 0.635049900480827 
2404	 0.548392378449615 
2405	 0.491898326819205 
2406	 0.587760431041404 
2407	 0.561327441172232 
2408	 0.354803054942162 
2409	 0.361463334486732 
2410	 0.484157302146675 
2411	 0.600726560952763 
2412	 0.962442742577017 
2413	 0.980521023442198 
2414	 0.762444989621449 
2415	 0.759558841808776 
2416	 0.704161616767535 
2417	 0.686848269315528 
2418	 0.793999574848874 
2419	 0.903485873489545 
2420	 0.951694243921222 
2421	 0.94931122365672 
2422	 0.970479337133783 
2423	 0.992831495321403 
2424	 0.936201394637637 
2425	 0.871381557729205 
2426	 0.866173188979137 
2427	 0.837473178408055 
2428	 0.775503829857425 
2429	 0.653639465218693 
2430	 0.445523813944245 
2431	 0.37542465928473 
2432	 0.123105177222013 
2433	 2.85440076211151E-02 
2434	 0.919299386413389 
2435	 2.65395065285591 
2436	 1.42872992829816 
2437	 1.56417387411952 
2438	 1.76194715541332 
2439	 1.633387695137 
2440	 1.49304122687699 
2441	 1.376703373207 
2442	 1.17893420371782 
2443	 1.04802366668139 
2444	 0.918390741479626 
2445	 0.694718579407161 
2446	 0.427721109847314 
2447	 0.452041172269467 
2448	 0.594352695926879 
2449	 0.847097508187294 
2450	 1.17190686988107 
2451	 1.296191026702 
2452	 1.07157787108844 
2453	 0.733300823476696 
2454	 0.536785012222575 
2455	 0.46314210362752 
2456	 0.471389367729991 
2457	 0.575753611832132 
2458	 0.60626175697988 
2459	 0.920124772072912 
2460	 0.996091706973653 
2461	 0.777688141383707 
2462	 0.78000721663757 
2463	 0.585931538784188 
2464	 0.553745044477938 
2465	 0.936741872187567 
2466	 0.985288650602636 
2467	 0.739028647864463 
2468	 0.736733313513698 
2469	 0.759012145689779 
2470	 0.810992733843569 
2471	 1.07976876866977 
2472	 1.19718652246148 
2473	 1.25980938066172 
2474	 1.31189930492611 
2475	 1.15010854447272 
2476	 1.18087866711511 
2477	 1.61904777770692 
2478	 1.81204797606979 
2479	 2.93108445270705 
2480	 2.13457900953713 
2481	 0.739523211295462 
2482	 0.622863821213267 
2483	 0.588226351212994 
2484	 0.529819924408784 
2485	 0.525836896007317 
2486	 0.677943256118671 
2487	 0.9537727912507 
2488	 1.62616991476399 
2489	-5.62047305429563 
2490	-7.16211682279697 
2491	 4.85899264308012 
2492	 2.6609643518152 
2493	 1.08211710540467 
2494	 0.820259992187994 
2495	 0.614630177833747 
2496	 0.528989960897897 
2497	 0.625110204221371 
2498	 0.756614471956708 
2499	 0.97103327566796 
2500	 1.14489541833528 
