Wavelength	000007.asd
350	 6.69353695091134E-02 
351	 6.73479724575286E-02 
352	 0.066190342018836 
353	 0.065447528360208 
354	 6.57862721210958E-02 
355	 6.64815497080024E-02 
356	 6.62901934298275E-02 
357	 6.40634074399166E-02 
358	 6.40904051877205E-02 
359	 6.49594932441046E-02 
360	 0.065578732072699 
361	 6.67603503239871E-02 
362	 6.62012103302192E-02 
363	 6.52007651660392E-02 
364	 6.50337603879201E-02 
365	 6.46958508160489E-02 
366	 6.48097664446039E-02 
367	 6.53682303126482E-02 
368	 6.60245792693822E-02 
369	 6.61444669812138E-02 
370	 6.56284011112871E-02 
371	 6.53352942719997E-02 
372	 6.63844032265187E-02 
373	 6.62817243360977E-02 
374	 6.57113476344554E-02 
375	 6.56195882897838E-02 
376	 6.66918150885086E-02 
377	 6.63180552500026E-02 
378	 6.55467265292417E-02 
379	 6.55524353707171E-02 
380	 6.57856344188452E-02 
381	 6.60425881525318E-02 
382	 6.59296509773138E-02 
383	 6.53978063545558E-02 
384	 6.59833245212171E-02 
385	 6.67061181569586E-02 
386	 6.72109175089785E-02 
387	 6.75850619004343E-02 
388	 6.74039376105281E-02 
389	 6.70655020803376E-02 
390	 6.65135665137317E-02 
391	 6.51379679167072E-02 
392	 6.61169835652845E-02 
393	 6.75771025004405E-02 
394	 6.76444549666666E-02 
395	 6.68331363860955E-02 
396	 6.59177550723132E-02 
397	 6.56404502575954E-02 
398	 0.066274895518786 
399	 6.68776159082886E-02 
400	 6.69620215083786E-02 
401	 6.69315234771668E-02 
402	 6.75099051920294E-02 
403	 6.74596759363295E-02 
404	 6.74129766056349E-02 
405	 6.76089850103956E-02 
406	 0.067544980362193 
407	 6.74834556692793E-02 
408	 6.73173650019243E-02 
409	 6.71192231796056E-02 
410	 6.77018417865509E-02 
411	 6.79509292072038E-02 
412	 6.79024178875194E-02 
413	 6.79935731204817E-02 
414	 0.067934810553608 
415	 6.78579030194659E-02 
416	 6.79733276745659E-02 
417	 6.84500492815848E-02 
418	 6.81365703916143E-02 
419	 6.77011184490593E-02 
420	 6.76504742124558E-02 
421	 6.76077210941797E-02 
422	 6.81875083507204E-02 
423	 6.85567536808375E-02 
424	 6.80268011424678E-02 
425	 0.068225381420659 
426	 6.83554720387768E-02 
427	 6.84871827691344E-02 
428	 6.91272378361329E-02 
429	 6.88570195360923E-02 
430	 6.85404544788855E-02 
431	 0.068750361702498 
432	 6.92768204933532E-02 
433	 6.91429709454103E-02 
434	 6.88874708849754E-02 
435	 6.91071241940161E-02 
436	 6.95877523567917E-02 
437	 0.069585038116205 
438	 0.069330965475553 
439	 6.94320701081908E-02 
440	 6.95070120704265E-02 
441	 6.96052084333912E-02 
442	 6.96996161082794E-02 
443	 6.96543358313961E-02 
444	 6.97253828451969E-02 
445	 6.98544523902082E-02 
446	 6.99499723628093E-02 
447	 0.069998529225208 
448	 7.01457805660491E-02 
449	 7.02612860155797E-02 
450	 7.01863323240964E-02 
451	 0.070373844996286 
452	 7.03455985574166E-02 
453	 7.01522139608061E-02 
454	 7.04262857049684E-02 
455	 7.05404902918947E-02 
456	 0.070514450159563 
457	 0.070477544349685 
458	 7.04840203576735E-02 
459	 0.070568416699502 
460	 7.07193410618448E-02 
461	 7.08797365732721E-02 
462	 7.08995803360008E-02 
463	 7.08460788976037E-02 
464	 7.07841117604809E-02 
465	 7.07576965987347E-02 
466	 7.08008189965679E-02 
467	 7.08541090410553E-02 
468	 7.08724546520208E-02 
469	 7.09248301152433E-02 
470	 7.07014705736244E-02 
471	 7.05662054708027E-02 
472	 0.070941615221729 
473	 7.07705318700339E-02 
474	 0.070676544157059 
475	 7.08475885758621E-02 
476	 7.08988201829151E-02 
477	 7.09035627454811E-02 
478	 7.08512372744064E-02 
479	 7.07716580362819E-02 
480	 7.08047946190881E-02 
481	 7.10358709788373E-02 
482	 7.12694573583279E-02 
483	 7.12273322748327E-02 
484	 7.10744677351919E-02 
485	 7.09580742572397E-02 
486	 7.10518788520422E-02 
487	 7.15195492556723E-02 
488	 7.14303342016478E-02 
489	 7.10334434127038E-02 
490	 7.08156658005616E-02 
491	 0.071107251227228 
492	 7.14101879849283E-02 
493	 7.15569400185142E-02 
494	 7.15726403989281E-02 
495	 7.15568265131633E-02 
496	 7.15393116816832E-02 
497	 7.16121405024793E-02 
498	 7.19568068409805E-02 
499	 7.20360366885775E-02 
500	 7.18909994482827E-02 
501	 7.17665413396708E-02 
502	 7.20081373877599E-02 
503	 7.23079215124079E-02 
504	 7.23868359528289E-02 
505	 7.20935709862497E-02 
506	 7.20573372991533E-02 
507	 7.21100446954894E-02 
508	 7.22055508535486E-02 
509	 0.072655990394945 
510	 7.27494707012624E-02 
511	 7.26091128937082E-02 
512	 7.26048738429281E-02 
513	 7.30467196181554E-02 
514	 7.31752678151552E-02 
515	 7.29326018865692E-02 
516	 7.28474587232899E-02 
517	 7.30375544819765E-02 
518	 7.32778738180704E-02 
519	 7.34044936651327E-02 
520	 7.35163581476952E-02 
521	 7.36332192568251E-02 
522	 7.36818694327383E-02 
523	 7.36210384258855E-02 
524	 0.073740596730276 
525	 7.38863989569834E-02 
526	 7.40038115408757E-02 
527	 7.41577085867659E-02 
528	 7.43590161377726E-02 
529	 7.43561464382621E-02 
530	 7.41500303603416E-02 
531	 7.44987376981665E-02 
532	 7.46540035794027E-02 
533	 0.074635336642855 
534	 7.47829331833577E-02 
535	 7.48796356514641E-02 
536	 7.49372639577493E-02 
537	 7.50323176242783E-02 
538	 0.075301584056033 
539	 7.54050786919114E-02 
540	 7.54005838768124E-02 
541	 7.54194807992452E-02 
542	 7.53957001721674E-02 
543	 7.55225475661558E-02 
544	 7.58380232817028E-02 
545	 7.62313596070756E-02 
546	 7.62268252039006E-02 
547	 7.61140401929603E-02 
548	 0.076137688101187 
549	 7.62526416639829E-02 
550	 7.64080495330431E-02 
551	 7.65852167346343E-02 
552	 0.076742458561817 
553	 7.66358657489456E-02 
554	 7.66915877797899E-02 
555	 7.69387894790382E-02 
556	 7.70097918048044E-02 
557	 7.71022475577609E-02 
558	 7.72071045775299E-02 
559	 7.73048162475193E-02 
560	 7.74665761094818E-02 
561	 7.75560710212984E-02 
562	 7.75145123125758E-02 
563	 7.73750935419768E-02 
564	 7.75263857229741E-02 
565	 7.76670721984418E-02 
566	 0.077630828342132 
567	 0.077537755649786 
568	 7.76975850012598E-02 
569	 7.78505937637346E-02 
570	 0.077705998285766 
571	 0.07757529293661 
572	 7.77468872508661E-02 
573	 7.80938924785297E-02 
574	 7.81905126160949E-02 
575	 7.80883317784763E-02 
576	 7.80209798104491E-02 
577	 7.81105024132509E-02 
578	 7.81730241317445E-02 
579	 7.80686254106326E-02 
580	 7.79369884304214E-02 
581	 7.79906520335906E-02 
582	 7.81163530994255E-02 
583	 7.80849424662476E-02 
584	 7.79245048562257E-02 
585	 7.79672678691514E-02 
586	 7.82802664912825E-02 
587	 7.84271829900212E-02 
588	 7.81155286255028E-02 
589	 7.81241446973752E-02 
590	 7.81506329729507E-02 
591	 7.81515072344939E-02 
592	 7.82364131558192E-02 
593	 7.82073757180964E-02 
594	 0.078214427835373 
595	 7.82859691344973E-02 
596	 7.81701871949074E-02 
597	 7.81810002973616E-02 
598	 7.82089836138711E-02 
599	 7.81058521204249E-02 
600	 7.81849307878794E-02 
601	 7.80914858977415E-02 
602	 0.077845639616343 
603	 7.78074375676363E-02 
604	 7.77237450906351E-02 
605	 7.76579233408837E-02 
606	 0.077662519405363 
607	 7.76120433907783E-02 
608	 7.76354311037217E-02 
609	 7.76709960913877E-02 
610	 7.76083044994943E-02 
611	 7.77663079048054E-02 
612	 7.76768710000635E-02 
613	 0.077311884185292 
614	 7.73516505848566E-02 
615	 7.75535373444959E-02 
616	 7.76276586418505E-02 
617	 7.73843299121713E-02 
618	 7.70639939095578E-02 
619	 7.70594831049556E-02 
620	 7.72841329968007E-02 
621	 7.73176410393559E-02 
622	 7.73133457523017E-02 
623	 7.72141154811389E-02 
624	 7.70922339073959E-02 
625	 0.077415919470184 
626	 7.73433344256743E-02 
627	 7.71636428407764E-02 
628	 7.74229847054794E-02 
629	 7.71310428522805E-02 
630	 7.69127928354491E-02 
631	 7.69792840742861E-02 
632	 7.69641717320917E-02 
633	 7.68010951251026E-02 
634	 7.67846078019247E-02 
635	 0.077078914377832 
636	 7.72237956682221E-02 
637	 7.72220937198947E-02 
638	 7.71189161899447E-02 
639	 7.70099747368564E-02 
640	 7.71014310442635E-02 
641	 7.72338258559197E-02 
642	 7.72569173059405E-02 
643	 7.71071519382582E-02 
644	 7.72931457905104E-02 
645	 7.73466608184713E-02 
646	 7.68320550112257E-02 
647	 7.71492237178323E-02 
648	 7.75188272972515E-02 
649	 0.077569771485451 
650	 7.74485999738001E-02 
651	 7.71861714293122E-02 
652	 7.70975003991278E-02 
653	 7.72905835076814E-02 
654	 7.73429570067689E-02 
655	 7.71343991495492E-02 
656	 0.076780544264733 
657	 7.66110456524316E-02 
658	 7.68207887747463E-02 
659	 7.68421698350201E-02 
660	 7.66062278926901E-02 
661	 7.65822663939041E-02 
662	 7.66264826877399E-02 
663	 7.65124936156063E-02 
664	 0.076175187402862 
665	 7.61429628308474E-02 
666	 7.59676956912825E-02 
667	 7.58788335369163E-02 
668	 7.63633809576122E-02 
669	 7.64530906795271E-02 
670	 7.60702089579182E-02 
671	 7.56232513475431E-02 
672	 7.61519562645987E-02 
673	 7.61730060468348E-02 
674	 7.57930392426022E-02 
675	 7.55787402807212E-02 
676	 7.58195242668904E-02 
677	 0.075977203191921 
678	 7.58651977375785E-02 
679	 7.56413783101205E-02 
680	 7.57946056848503E-02 
681	 7.58248331391322E-02 
682	 7.55425233818126E-02 
683	 0.075764104064368 
684	 7.61502563726417E-02 
685	 7.64258014614144E-02 
686	 0.076451681808584 
687	 7.68768751283811E-02 
688	 0.077019325980615 
689	 7.67020440693767E-02 
690	 7.64912524400333E-02 
691	 7.74995049714247E-02 
692	 7.82852501897585E-02 
693	 7.79604870028314E-02 
694	 7.86587880782308E-02 
695	 7.88732689910167E-02 
696	 7.87474558500766E-02 
697	 7.90321215354477E-02 
698	 7.95738959167459E-02 
699	 7.95800080328205E-02 
700	 7.92182821027557E-02 
701	 8.00622835198347E-02 
702	 8.06720415906922E-02 
703	 8.07526777314129E-02 
704	 8.05814073239735E-02 
705	 8.11649731656539E-02 
706	 8.13664769156159E-02 
707	 8.12088126339142E-02 
708	 8.13240999350036E-02 
709	 8.17116250138195E-02 
710	 8.18849866332839E-02 
711	 8.18180420502445E-02 
712	 8.21773577541695E-02 
713	 8.24587945524735E-02 
714	 8.26978678333332E-02 
715	 8.29656054977626E-02 
716	 8.27778001312876E-02 
717	 8.32682883169904E-02 
718	 8.43740968275667E-02 
719	 8.45101793210597E-02 
720	 8.46014450149004E-02 
721	 8.50044068732576E-02 
722	 8.53859318135769E-02 
723	 8.46718337669668E-02 
724	 8.47647715052503E-02 
725	 8.53745126218773E-02 
726	 8.55489284674774E-02 
727	 8.54870866705794E-02 
728	 8.57092600184777E-02 
729	 8.61831689033777E-02 
730	 8.65310438693488E-02 
731	 8.68741465408592E-02 
732	 8.69460700478512E-02 
733	 8.68732799845953E-02 
734	 8.72199270855378E-02 
735	 8.73421372721548E-02 
736	 8.72782582778576E-02 
737	 8.73047772345236E-02 
738	 8.79141830755584E-02 
739	 8.82776720744096E-02 
740	 8.82057952541109E-02 
741	 8.79919333559606E-02 
742	 8.83394884365775E-02 
743	 8.86597433618514E-02 
744	 8.86866829366184E-02 
745	 8.88088516154686E-02 
746	 0.088966228026722 
747	 8.90121089966599E-02 
748	 8.89279909588238E-02 
749	 8.92456516886513E-02 
750	 8.94814707152016E-02 
751	 8.95195848498841E-02 
752	 8.94980489144999E-02 
753	 8.95177872054317E-02 
754	 8.97624259147823E-02 
755	 9.00786904211575E-02 
756	 8.98723346210596E-02 
757	 8.98071856537668E-02 
758	 8.98859097947271E-02 
759	 8.99861310747202E-02 
760	 9.00790203404669E-02 
761	 8.98464694373299E-02 
762	 8.98170474610449E-02 
763	 9.05839914545076E-02 
764	 9.07655852592587E-02 
765	 9.04570766312345E-02 
766	 9.02098677061764E-02 
767	 9.05631446865947E-02 
768	 9.05731210452368E-02 
769	 9.04649635397014E-02 
770	 9.04648417653019E-02 
771	 9.05109736222022E-02 
772	 0.090537373530254 
773	 9.05150143592457E-02 
774	 9.04953956149173E-02 
775	 9.08761993987682E-02 
776	 9.09314997706566E-02 
777	 9.06777968860375E-02 
778	 9.07860215910907E-02 
779	 9.10804104718737E-02 
780	 0.091170616624831 
781	 9.09912215418522E-02 
782	 9.11156600643536E-02 
783	 9.12720038636081E-02 
784	 9.11644347532544E-02 
785	 9.07454218466106E-02 
786	 9.09310020153677E-02 
787	 9.12946805401864E-02 
788	 9.15043984874383E-02 
789	 9.13568807983796E-02 
790	 9.10835728783393E-02 
791	 9.11971097862335E-02 
792	 9.15362468251524E-02 
793	 9.11821556005722E-02 
794	 9.10400290611825E-02 
795	 0.09119517891262 
796	 9.14813615014704E-02 
797	 9.15364449572571E-02 
798	 9.15323603064284E-02 
799	 9.14650424329903E-02 
800	 9.13431742905069E-02 
801	 9.15202143642417E-02 
802	 9.17499169435795E-02 
803	 9.17045117189133E-02 
804	 9.12041944658393E-02 
805	 9.15505354742968E-02 
806	 9.17225798879781E-02 
807	 9.14667499528766E-02 
808	 9.19238448595357E-02 
809	 0.091826467470608 
810	 9.17816892413927E-02 
811	 9.22530589008191E-02 
812	 9.15292715801156E-02 
813	 9.13374044090119E-02 
814	 9.19237023988816E-02 
815	 9.25443112719468E-02 
816	 9.21497036260102E-02 
817	 9.21689558985061E-02 
818	 9.25453543777932E-02 
819	 9.21782044209133E-02 
820	 9.21754680822609E-02 
821	 9.20055069955703E-02 
822	 9.16580598615315E-02 
823	 9.19925375405912E-02 
824	 9.19793161994308E-02 
825	 9.19652135864268E-02 
826	 9.21912432861504E-02 
827	 0.092052402911522 
828	 9.18429753880377E-02 
829	 9.16711953549808E-02 
830	 9.15938039605996E-02 
831	 9.15885071729888E-02 
832	 9.23439790468175E-02 
833	 0.093039101371997 
834	 9.24226667908722E-02 
835	 9.22898979740524E-02 
836	 9.24215318154769E-02 
837	 0.092363775874167 
838	 9.17220552894393E-02 
839	 9.18076355339687E-02 
840	 9.22293143870057E-02 
841	 9.24535442558894E-02 
842	 9.22073267029015E-02 
843	 9.20668820677028E-02 
844	 9.19967378298791E-02 
845	 0.091965891424878 
846	 9.25164036575246E-02 
847	 9.24307294584725E-02 
848	 9.21002345303853E-02 
849	 9.23197911187417E-02 
850	 9.23830533209835E-02 
851	 9.23893827260808E-02 
852	 9.23330721595375E-02 
853	 9.21629788618315E-02 
854	 9.20889914606982E-02 
855	 9.20490772363235E-02 
856	 9.22490006164207E-02 
857	 0.09300765732992 
858	 9.25733483519461E-02 
859	 9.21158590677261E-02 
860	 9.22761469975551E-02 
861	 9.22507803847571E-02 
862	 9.24568306174393E-02 
863	 9.26286809776164E-02 
864	 9.24449341745616E-02 
865	 9.17654001240502E-02 
866	 9.16861364061711E-02 
867	 9.20793847703198E-02 
868	 9.23908175122497E-02 
869	 9.22855584486178E-02 
870	 9.26450455340156E-02 
871	 9.26941905621121E-02 
872	 9.16135180555857E-02 
873	 9.22958347776967E-02 
874	 9.25622286524076E-02 
875	 9.24206584300354E-02 
876	 9.31630643004605E-02 
877	 9.27474919564353E-02 
878	 9.25602670012504E-02 
879	 9.29305986960197E-02 
880	 9.29489307949239E-02 
881	 9.31764309210014E-02 
882	 9.25594926948339E-02 
883	 0.091542594035523 
884	 9.24803324738482E-02 
885	 9.22548483044115E-02 
886	 9.17150888967306E-02 
887	 9.18370692355376E-02 
888	 9.24192403020866E-02 
889	 9.25858729168811E-02 
890	 9.23649065311867E-02 
891	 9.21898224688116E-02 
892	 9.28971508462846E-02 
893	 9.25310165968431E-02 
894	 9.17281600693516E-02 
895	 0.091759451904918 
896	 9.19672769984068E-02 
897	 9.29416781395548E-02 
898	 9.28821220751837E-02 
899	 9.04882820412619E-02 
900	 9.09572892519847E-02 
901	 9.20349768615619E-02 
902	 9.22084331047596E-02 
903	 9.11147043314241E-02 
904	 9.06864283831374E-02 
905	 9.16515453452825E-02 
906	 9.26643160121065E-02 
907	 9.18253735305042E-02 
908	 0.091621176357871 
909	 9.30408834451437E-02 
910	 9.45004090613504E-02 
911	 0.093277859273416 
912	 0.093319473646523 
913	 9.35084442124019E-02 
914	 9.27154834722537E-02 
915	 9.07975833637607E-02 
916	 9.15359029922505E-02 
917	 9.34679970124658E-02 
918	 9.45279479398088E-02 
919	 9.33269895244432E-02 
920	 9.24316996686768E-02 
921	 9.13039604391633E-02 
922	 9.04966366715585E-02 
923	 9.15947739212208E-02 
924	 9.17357596737841E-02 
925	 9.13291927122006E-02 
926	 9.10970459000327E-02 
927	 9.13714448984839E-02 
928	 9.00388110062107E-02 
929	 8.77910347901879E-02 
930	 8.45993563221921E-02 
931	 7.81930936930057E-02 
932	 8.30056234249257E-02 
933	 8.76678604859765E-02 
934	 7.76164632258454E-02 
935	 6.15325609734065E-02 
936	 0.061562466476953 
937	 7.00116084178348E-02 
938	 7.56965457581573E-02 
939	 7.29160868693147E-02 
940	 8.32088259645883E-02 
941	 8.67622013007543E-02 
942	 0.07592616634682 
943	 6.36327393730984E-02 
944	 0.080011583718876 
945	 8.89746763898893E-02 
946	 7.70694833832476E-02 
947	 7.76977669011289E-02 
948	 7.57046298108228E-02 
949	 0.072851215398472 
950	 7.02424413946487E-02 
951	 6.71973885901383E-02 
952	 7.96851740215375E-02 
953	 8.60443944538504E-02 
954	 8.13757419391059E-02 
955	 8.07343068985241E-02 
956	 8.60560830697486E-02 
957	 8.70787509236349E-02 
958	 8.47598068928407E-02 
959	 8.75854625594673E-02 
960	 8.08386020566806E-02 
961	 7.93884155465753E-02 
962	 8.32712807940408E-02 
963	 8.29083068807712E-02 
964	 8.83075161679907E-02 
965	 8.87027629882127E-02 
966	 8.64252975168197E-02 
967	 8.88858207984378E-02 
968	 8.41065191400691E-02 
969	 8.38409498409615E-02 
970	 8.87943312376093E-02 
971	 9.24892064568328E-02 
972	 9.05458079528635E-02 
973	 8.76495718573007E-02 
974	 8.70571557475706E-02 
975	 8.92187696572677E-02 
976	 8.82020626177107E-02 
977	 8.99079115760127E-02 
978	 9.33005003750273E-02 
979	 9.35267092693811E-02 
980	 8.35062850155667E-02 
981	 0.085740399859715 
982	 0.09029649279103 
983	 8.64483053344073E-02 
984	 8.74723700889473E-02 
985	 9.04851976522209E-02 
986	 0.092289832204486 
987	 9.05986524369358E-02 
988	 8.55224875280948E-02 
989	 8.61565765212864E-02 
990	 8.71836691096368E-02 
991	 8.62305237634981E-02 
992	 8.91393860178544E-02 
993	 8.79682223677758E-02 
994	 8.61381411845163E-02 
995	 8.67616960534253E-02 
996	 0.089541410937819 
997	 8.84687054532571E-02 
998	 8.94240836010005E-02 
999	 9.15644319071378E-02 
1000	 8.94298047871254E-02 
1001	 9.55050443263616E-02 
1002	 9.59113040042462E-02 
1003	 9.65256532840016E-02 
1004	 9.67875342719219E-02 
1005	 9.59207527637435E-02 
1006	 9.57656791214744E-02 
1007	 9.50482440778896E-02 
1008	 9.41064086654072E-02 
1009	 9.30876355805165E-02 
1010	 9.30419061595451E-02 
1011	 9.11835355647762E-02 
1012	 9.42341546684273E-02 
1013	 9.58428108108637E-02 
1014	 9.49523481604111E-02 
1015	 0.095709251485937 
1016	 9.46461094413062E-02 
1017	 9.35037952120386E-02 
1018	 9.14230097091305E-02 
1019	 9.11310611117586E-02 
1020	 9.11702097705703E-02 
1021	 9.12939362962626E-02 
1022	 9.28186890501477E-02 
1023	 9.33637148251946E-02 
1024	 9.33696709564682E-02 
1025	 9.30063961227378E-02 
1026	 9.25713438334239E-02 
1027	 0.093282062796152 
1028	 9.37833437533851E-02 
1029	 9.36595630931372E-02 
1030	 9.49354698150975E-02 
1031	 9.61752315476389E-02 
1032	 9.68208419529481E-02 
1033	 9.82188456436367E-02 
1034	 9.82298942794584E-02 
1035	 9.63345142367715E-02 
1036	 9.53713866838823E-02 
1037	 9.41062761823768E-02 
1038	 9.38429921239126E-02 
1039	 9.28754375850858E-02 
1040	 9.42005703234323E-02 
1041	 9.50939924080187E-02 
1042	 9.33722962309149E-02 
1043	 9.26565410720862E-02 
1044	 9.09909522491773E-02 
1045	 8.97174067657726E-02 
1046	 9.03448126615249E-02 
1047	 9.26833507603286E-02 
1048	 9.38045117482012E-02 
1049	 9.36042832782384E-02 
1050	 9.26631599001383E-02 
1051	 0.091986385921839 
1052	 8.97269591149679E-02 
1053	 0.0873053267122 
1054	 8.76436041294392E-02 
1055	 9.04800016544615E-02 
1056	 9.22510998332104E-02 
1057	 9.60538484883301E-02 
1058	 9.89090396465005E-02 
1059	 9.68559760966236E-02 
1060	 9.52777368866527E-02 
1061	 9.39231165124905E-02 
1062	 0.092906550586511 
1063	 9.36473995832954E-02 
1064	 0.094015552871598 
1065	 9.48958583014748E-02 
1066	 0.094569599685032 
1067	 9.47631725925288E-02 
1068	 9.46179137197345E-02 
1069	 9.26931538093247E-02 
1070	 9.32075825622139E-02 
1071	 9.37681034772553E-02 
1072	 0.0924528984699 
1073	 9.35814304477185E-02 
1074	 9.30328469237836E-02 
1075	 9.12922826990156E-02 
1076	 9.20745296790704E-02 
1077	 9.31999629298904E-02 
1078	 9.40284187646609E-02 
1079	 9.42111329050088E-02 
1080	 0.094150658843376 
1081	 9.45022624459193E-02 
1082	 0.095044819291525 
1083	 9.53852051547229E-02 
1084	 0.097865718676009 
1085	 9.95814254142945E-02 
1086	 9.84629410810306E-02 
1087	 9.72358197367602E-02 
1088	 9.59639869362311E-02 
1089	 9.33918879085458E-02 
1090	 9.23090803899892E-02 
1091	 9.43669272806917E-02 
1092	 0.09676704269553 
1093	 9.80389564038623E-02 
1094	 0.096650530501389 
1095	 9.53670397334382E-02 
1096	 9.16876124915386E-02 
1097	 8.83687026297526E-02 
1098	 8.69538092663989E-02 
1099	 8.96118396970341E-02 
1100	 9.32217361551018E-02 
1101	 9.36052964712117E-02 
1102	 9.29736900362321E-02 
1103	 9.12165229520235E-02 
1104	 8.85626995305546E-02 
1105	 9.04120246357054E-02 
1106	 9.43857356574878E-02 
1107	 0.10010207141609 
1108	 0.106319321613018 
1109	 0.108809896527542 
1110	 0.110455091382092 
1111	 0.109900835582361 
1112	 0.107570696716847 
1113	 0.100609497325269 
1114	 9.45483760147154E-02 
1115	 8.73015456164427E-02 
1116	 7.87578603637434E-02 
1117	 0.087214215023503 
1118	 9.83784112587056E-02 
1119	 8.87491033359437E-02 
1120	 8.67155830362516E-02 
1121	 8.26398960324445E-02 
1122	 4.27195413717503E-02 
1123	 4.07089509899318E-02 
1124	 6.67817343414307E-02 
1125	 5.08614888531579E-02 
1126	 7.25102107148296E-02 
1127	 9.33588378168231E-02 
1128	 0.138916804482604 
1129	 0.149270663601662 
1130	 0.152639655613964 
1131	 0.138411235495301 
1132	 0.11606661725505 
1133	 9.95326682573123E-02 
1134	 0.116716476579755 
1135	 0.118500436404139 
1136	 0.11120717042519 
1137	 0.114004228410847 
1138	 0.108610162296454 
1139	 0.109805759131155 
1140	 0.11482173658716 
1141	 0.11327810057601 
1142	 0.116539587446805 
1143	 0.115705295417949 
1144	 0.119942172345367 
1145	 0.137016144370763 
1146	 0.143370800048694 
1147	 0.144279171336084 
1148	 0.14315590875763 
1149	 0.145944905547472 
1150	 0.136869188515661 
1151	 0.127699345160828 
1152	 0.115569001282499 
1153	 0.101285192012518 
1154	 0.107450279799858 
1155	 0.1103094487525 
1156	 0.110191642185711 
1157	 0.110862817581759 
1158	 0.10611803941502 
1159	 0.104212726588515 
1160	 0.104041955870347 
1161	 0.102846995574033 
1162	 0.102000650693868 
1163	 9.99479782402665E-02 
1164	 9.78701518711633E-02 
1165	 9.40916155099738E-02 
1166	 8.97369966914056E-02 
1167	 8.77252137504222E-02 
1168	 8.88049836273672E-02 
1169	 9.15985119959935E-02 
1170	 9.50066630162413E-02 
1171	 9.67750719246527E-02 
1172	 9.69756403201952E-02 
1173	 9.74202053660448E-02 
1174	 0.096872358979842 
1175	 9.74542200606425E-02 
1176	 9.80479257480709E-02 
1177	 9.85068396109415E-02 
1178	 9.84366666443557E-02 
1179	 9.94569710737728E-02 
1180	 9.90427472616874E-02 
1181	 9.62051890959976E-02 
1182	 9.52415358369721E-02 
1183	 9.53907932229832E-02 
1184	 9.41253857023055E-02 
1185	 9.18352125381793E-02 
1186	 9.28626430359115E-02 
1187	 9.27864971333628E-02 
1188	 9.21489751696821E-02 
1189	 9.50254857052726E-02 
1190	 9.77429615208214E-02 
1191	 9.56649414858934E-02 
1192	 9.34845922320864E-02 
1193	 9.31903919958237E-02 
1194	 9.07788076702948E-02 
1195	 9.10685022899266E-02 
1196	 9.60197363575029E-02 
1197	 9.74885548348679E-02 
1198	 9.83841927963605E-02 
1199	 9.87094641809459E-02 
1200	 9.74213259671071E-02 
1201	 9.68290481251934E-02 
1202	 9.60929320091002E-02 
1203	 9.49063697181143E-02 
1204	 9.37910591094232E-02 
1205	 9.31133355902164E-02 
1206	 9.49523759571724E-02 
1207	 9.52177381771017E-02 
1208	 9.54091794342179E-02 
1209	 9.77144691507086E-02 
1210	 9.77215960519595E-02 
1211	 9.54138038438014E-02 
1212	 9.47234857330221E-02 
1213	 9.42558267819503E-02 
1214	 9.37006430349795E-02 
1215	 9.36604783129302E-02 
1216	 9.34345894285392E-02 
1217	 9.26685220066675E-02 
1218	 9.26965896185774E-02 
1219	 9.29277895515251E-02 
1220	 9.34122357413979E-02 
1221	 9.53980888101572E-02 
1222	 9.52310742433478E-02 
1223	 9.56522331645928E-02 
1224	 9.63019642354828E-02 
1225	 9.37202582608637E-02 
1226	 9.29678990754695E-02 
1227	 9.27562315735748E-02 
1228	 9.04649150087466E-02 
1229	 0.089584569822608 
1230	 8.97920900793842E-02 
1231	 8.99064256900944E-02 
1232	 8.95145783848823E-02 
1233	 9.04209834746428E-02 
1234	 9.34497264665186E-02 
1235	 9.44795407943946E-02 
1236	 0.094908322290047 
1237	 9.53890495139301E-02 
1238	 0.094411207354003 
1239	 9.44707091151835E-02 
1240	 0.096229376378246 
1241	 9.62646652057262E-02 
1242	 9.53238408265016E-02 
1243	 0.095038185702143 
1244	 9.40308124960625E-02 
1245	 9.30424227767138E-02 
1246	 9.32389821125404E-02 
1247	 9.33279227731177E-02 
1248	 9.30951303121788E-02 
1249	 9.24080867022834E-02 
1250	 0.092355838558942 
1251	 9.23080716614674E-02 
1252	 9.25985849197126E-02 
1253	 9.36106750879667E-02 
1254	 9.38502232230387E-02 
1255	 9.43486920512867E-02 
1256	 9.42751021362585E-02 
1257	 9.28614568313639E-02 
1258	 9.23847526501122E-02 
1259	 0.09219319774894 
1260	 9.17348049464618E-02 
1261	 9.25629088925722E-02 
1262	 9.22968243118929E-02 
1263	 9.08116060353742E-02 
1264	 8.86373604601787E-02 
1265	 8.99330685957111E-02 
1266	 8.95543032624082E-02 
1267	 0.090533149011967 
1268	 9.34889285772209E-02 
1269	 9.34810323831085E-02 
1270	 9.07733935281639E-02 
1271	 9.03112921235221E-02 
1272	 8.94128791381853E-02 
1273	 8.95166764668712E-02 
1274	 9.06813888128067E-02 
1275	 9.20082347241505E-02 
1276	 0.09450587327755 
1277	 9.56456392518985E-02 
1278	 9.71845417252617E-02 
1279	 9.72439268948587E-02 
1280	 9.43850516653629E-02 
1281	 9.40293755602101E-02 
1282	 9.46680552070448E-02 
1283	 9.50214146927497E-02 
1284	 9.65214301190353E-02 
1285	 9.82050258548057E-02 
1286	 9.73764305640718E-02 
1287	 9.62293240957555E-02 
1288	 9.67901993353148E-02 
1289	 9.66137143111132E-02 
1290	 9.58141205805647E-02 
1291	 9.50920410580744E-02 
1292	 9.43708956264477E-02 
1293	 9.22824348162895E-02 
1294	 9.14140207957831E-02 
1295	 9.26773377503047E-02 
1296	 0.091654425399035 
1297	 8.85553052889406E-02 
1298	 8.74431749628756E-02 
1299	 8.55681063344058E-02 
1300	 8.53400330926107E-02 
1301	 8.85845912723377E-02 
1302	 8.92129159197791E-02 
1303	 8.82315049497188E-02 
1304	 8.87887265117258E-02 
1305	 8.88524577604566E-02 
1306	 8.95643224421125E-02 
1307	 9.15385501376752E-02 
1308	 9.53304140373206E-02 
1309	 0.096186114499445 
1310	 9.50357973403192E-02 
1311	 9.46671322852709E-02 
1312	 9.32803600920256E-02 
1313	 9.45154171036681E-02 
1314	 0.099143540580337 
1315	 9.94462606424315E-02 
1316	 9.87512662108769E-02 
1317	 9.91117361577599E-02 
1318	 9.72325140122864E-02 
1319	 9.63888156071427E-02 
1320	 9.68749703552844E-02 
1321	 9.70318017002736E-02 
1322	 9.75489009936989E-02 
1323	 9.60640375314587E-02 
1324	 9.38807266710924E-02 
1325	 9.27965559872244E-02 
1326	 8.63077142192992E-02 
1327	 0.085405764921578 
1328	 9.30568462604005E-02 
1329	 0.09720616356706 
1330	 0.104603120412062 
1331	 0.110537088141571 
1332	 0.115810383681981 
1333	 0.114799619638378 
1334	 0.110392325088443 
1335	 0.106286791573396 
1336	 0.104319446507783 
1337	 0.097778484728523 
1338	 9.94203234043694E-02 
1339	 0.111338982399001 
1340	 0.113970094406104 
1341	 0.115601112213363 
1342	 0.117755614794809 
1343	 0.114782355830286 
1344	 0.115797901677898 
1345	 0.12267275498271 
1346	 0.129076085265591 
1347	 0.135764473327552 
1348	 0.145098826218373 
1349	 0.171822452866129 
1350	 0.214383150998208 
1351	 0.242481621161416 
1352	-16.0847886994482 
1353	-0.511737707029719 
1354	-0.213096164621747 
1355	-0.220017233505507 
1356	-0.201740454898592 
1357	-0.207626547832444 
1358	-0.139008865701561 
1359	 9.07555842394862E-02 
1360	 0.220343968213913 
1361	 0.16298990663337 
1362	 0.18219746759797 
1363	 0.113056520287299 
1364	-0.226600051514721 
1365	-0.399596266778746 
1366	-1.84320774485158 
1367	 2.26907995455146 
1368	 0.258761726439535 
1369	 0.605636360646897 
1370	-2.03786897831098 
1371	-0.810760724539803 
1372	-0.43889872201682 
1373	-0.283271677530128 
1374	 0.380067318644351 
1375	 0.647248417721858 
1376	 1.36525619920629 
1377	 1.37388817847221 
1378	-6.10858663657668E-02 
1379	-0.292868542384399 
1380	-0.354281006813783 
1381	-0.500923992554384 
1382	-1.05631821335369 
1383	-2.06975692271203 
1384	-3.35962044658778 
1385	-4.9942250229578 
1386	-3.96987568746638 
1387	-2.43208363805852 
1388	-2.17240579025353 
1389	-1.76976886238387 
1390	-1.73316066123686 
1391	-2.20570582051007 
1392	-2.93467573382227 
1393	-6.42192826554025 
1394	-2.79951231427503 
1395	-0.49020052886332 
1396	 1.86084615765517E-02 
1397	 4.59589363942208E-02 
1398	-5.61203632396582E-02 
1399	-0.353138882921177 
1400	-0.370384800692681 
1401	-0.506561043364645 
1402	-0.38283132949356 
1403	 0.460120242082056 
1404	 0.615361096650606 
1405	 0.279350274802595 
1406	 0.253283355770462 
1407	-1.81720420355877E-02 
1408	-0.141476996966834 
1409	 1.92507848689291E-02 
1410	-3.5914937634208E-03 
1411	-0.449582489754632 
1412	-0.633371398555259 
1413	-0.688856120401537 
1414	-0.474231939624601 
1415	 0.358007895946295 
1416	 0.714232662887408 
1417	 0.869481571328673 
1418	 0.680170804332686 
1419	 7.83678796792203E-02 
1420	-0.263327596456236 
1421	-0.489438100832043 
1422	-1.00289442220516 
1423	-1.12684749293134 
1424	-0.595709482472029 
1425	 0.387857485363816 
1426	-5.53933210305085 
1427	-1.5223851853645 
1428	 1.94430236917063 
1429	 0.988551957080102 
1430	-8.90717795681396E-02 
1431	-0.411441371903002 
1432	-1.46938088377948 
1433	-1.62308172056389 
1434	-1.19205736454764 
1435	-0.79589630156135 
1436	-0.186447083382136 
1437	 0.544970517929102 
1438	 1.20012304468736 
1439	 1.28982848855312 
1440	 0.842060057414967 
1441	 0.70880575521322 
1442	 0.266119690651091 
1443	 0.105441319978475 
1444	 0.703196231083287 
1445	 0.688209333655617 
1446	 0.631521171885284 
1447	 0.559034165941287 
1448	 0.545826443368087 
1449	 0.407825199608749 
1450	 0.24613606794982 
1451	 0.17975186064725 
1452	 7.51401198476705E-02 
1453	 1.21975382712374E-02 
1454	-4.32452866514967E-02 
1455	-6.87432868577084E-02 
1456	 3.28821759579995E-03 
1457	 5.19877568806124E-02 
1458	 7.75108398376258E-02 
1459	 0.146553840444457 
1460	 0.148512242072323 
1461	 8.13958291690862E-02 
1462	 8.03270827842241E-02 
1463	 0.10168519166894 
1464	 0.105007246418603 
1465	 0.114872910685029 
1466	 0.121152417630981 
1467	 0.124196879720493 
1468	 0.125393658388468 
1469	 0.130830249577422 
1470	 0.127244769204416 
1471	 0.116737577451127 
1472	 9.25414181010948E-02 
1473	 4.86615440245603E-02 
1474	 4.82212503022387E-02 
1475	 0.063844547578466 
1476	 6.31597557087017E-02 
1477	 8.78603421309948E-02 
1478	 8.25352170279401E-02 
1479	 3.29549373706087E-02 
1480	 2.24105937419436E-02 
1481	 1.94484743300558E-02 
1482	 2.32013136822649E-02 
1483	 4.65110943186784E-02 
1484	 5.95224808055969E-02 
1485	 5.57851493981647E-02 
1486	 7.69877632125507E-02 
1487	 0.121415840993492 
1488	 0.126345256039718 
1489	 0.12582619909869 
1490	 0.120660698810942 
1491	 8.61595076487478E-02 
1492	 8.34715043414061E-02 
1493	 0.103529221107313 
1494	 0.107739366661853 
1495	 0.117205823021523 
1496	 0.118304821277859 
1497	 0.105348339548006 
1498	 9.98564568841207E-02 
1499	 9.23430380186504E-02 
1500	 9.42825675048205E-02 
1501	 0.100099747820479 
1502	 9.97732606947679E-02 
1503	 0.104725524347548 
1504	 0.103689078149956 
1505	 0.09661273543324 
1506	 0.082185516537749 
1507	 7.75542812008631E-02 
1508	 7.03105832754153E-02 
1509	 7.06296684918607E-02 
1510	 7.89309248990998E-02 
1511	 8.23826577653619E-02 
1512	 8.69980234791222E-02 
1513	 8.73330061334336E-02 
1514	 8.52384985996699E-02 
1515	 8.51292689749374E-02 
1516	 8.30269374814275E-02 
1517	 0.083092447202046 
1518	 8.50855293092799E-02 
1519	 8.69531397180539E-02 
1520	 8.90931593595858E-02 
1521	 9.00875211179341E-02 
1522	 0.091399479066647 
1523	 9.28742309883069E-02 
1524	 0.094177577199622 
1525	 9.43840967484797E-02 
1526	 9.49693599105145E-02 
1527	 9.45903422628529E-02 
1528	 9.24843431848674E-02 
1529	 0.090446433539469 
1530	 8.89239617445111E-02 
1531	 8.62887708633406E-02 
1532	 8.01934513539932E-02 
1533	 7.91989693768056E-02 
1534	 8.18389884458596E-02 
1535	 8.14234356143155E-02 
1536	 8.05969595607626E-02 
1537	 8.23310217819966E-02 
1538	 8.44631738534256E-02 
1539	 8.50354132473878E-02 
1540	 8.87759666893429E-02 
1541	 8.94334887405898E-02 
1542	 8.46648804480612E-02 
1543	 8.35772115134503E-02 
1544	 8.46411284809862E-02 
1545	 8.45996497253336E-02 
1546	 8.56612131294267E-02 
1547	 8.47984888094314E-02 
1548	 8.20290234292692E-02 
1549	 8.04699460674604E-02 
1550	 7.76388296571873E-02 
1551	 7.67487237393284E-02 
1552	 7.78531903882233E-02 
1553	 7.80852079171029E-02 
1554	 7.92688393792867E-02 
1555	 7.95630245019298E-02 
1556	 7.93002990619599E-02 
1557	 7.87627532239971E-02 
1558	 0.077200776206666 
1559	 7.66527846434176E-02 
1560	 0.076076886887176 
1561	 7.55957292738729E-02 
1562	 7.56283498510066E-02 
1563	 7.66846195599983E-02 
1564	 7.46150164532378E-02 
1565	 7.32614402076971E-02 
1566	 7.26159188488773E-02 
1567	 7.06674797314431E-02 
1568	 7.23654667244797E-02 
1569	 7.60523811967113E-02 
1570	 7.84629027494037E-02 
1571	 7.98276550760677E-02 
1572	 7.92554825205952E-02 
1573	 0.078024804106143 
1574	 7.58460373198051E-02 
1575	 7.59988199559935E-02 
1576	 7.84481805309757E-02 
1577	 8.09498267718979E-02 
1578	 8.40307678815635E-02 
1579	 8.66918964216988E-02 
1580	 8.76100247892597E-02 
1581	 0.086238475897799 
1582	 8.44813255682308E-02 
1583	 8.22308504580297E-02 
1584	 0.082195720015573 
1585	 8.27302961645936E-02 
1586	 0.082789114569244 
1587	 8.41634368017974E-02 
1588	 8.51050590080406E-02 
1589	 8.52636125395868E-02 
1590	 8.52263672118992E-02 
1591	 8.60950508493127E-02 
1592	 8.56789325944877E-02 
1593	 8.38552370289062E-02 
1594	 8.25880219963021E-02 
1595	 8.08718651777029E-02 
1596	 7.97842325675216E-02 
1597	 0.078492812891756 
1598	 7.80781537997391E-02 
1599	 7.88782163797035E-02 
1600	 7.94821976813039E-02 
1601	 0.080158363175806 
1602	 8.08277148240727E-02 
1603	 8.14548731233843E-02 
1604	 8.25940046691224E-02 
1605	 8.45464279599408E-02 
1606	 8.49413748863773E-02 
1607	 8.49974466396946E-02 
1608	 0.08523004378766 
1609	 8.46931775451444E-02 
1610	 8.37762567526053E-02 
1611	 8.25955977353563E-02 
1612	 8.30804885206434E-02 
1613	 8.34841340564163E-02 
1614	 8.41630307894386E-02 
1615	 8.77896344836713E-02 
1616	 8.66780188902279E-02 
1617	 8.18809526883353E-02 
1618	 8.01847236291887E-02 
1619	 7.72891279692263E-02 
1620	 7.70181703313933E-02 
1621	 0.080329240215184 
1622	 8.06437977484394E-02 
1623	 0.080802406207014 
1624	 7.97299656344011E-02 
1625	 7.66427581395278E-02 
1626	 7.42233569716152E-02 
1627	 7.01274813815245E-02 
1628	 7.04736702926024E-02 
1629	 7.35145962798036E-02 
1630	 7.54998206034781E-02 
1631	 8.09316665485018E-02 
1632	 8.21344712262465E-02 
1633	 7.90144972467171E-02 
1634	 7.96887252663825E-02 
1635	 8.14672610052268E-02 
1636	 8.15481076418702E-02 
1637	 8.31758210882162E-02 
1638	 8.20387596591081E-02 
1639	 7.73798116344032E-02 
1640	 7.70190662737342E-02 
1641	 7.82589260703367E-02 
1642	 7.86182405273421E-02 
1643	 8.05625973730064E-02 
1644	 7.90831041708178E-02 
1645	 7.45354892708847E-02 
1646	 7.25479529817808E-02 
1647	 7.01875574052585E-02 
1648	 7.01866567128705E-02 
1649	 0.071926168457527 
1650	 7.42561486361147E-02 
1651	 7.85458847349965E-02 
1652	 8.00287198877622E-02 
1653	 8.24069079883591E-02 
1654	 0.082140904411014 
1655	 7.83795193029448E-02 
1656	 7.77828936362727E-02 
1657	 7.72071778258574E-02 
1658	 7.61157482348822E-02 
1659	 7.64897476519995E-02 
1660	 7.62439712239203E-02 
1661	 7.43186001280399E-02 
1662	 7.50400811493587E-02 
1663	 7.44567459639269E-02 
1664	 7.71565291287424E-02 
1665	 7.91793779441187E-02 
1666	 7.75120097454738E-02 
1667	 7.82967014373274E-02 
1668	 0.079497969086715 
1669	 8.35381000119046E-02 
1670	 8.48301505545467E-02 
1671	 8.16632461020972E-02 
1672	 8.03577902042394E-02 
1673	 7.78397755344489E-02 
1674	 7.81852496080435E-02 
1675	 0.081910205450957 
1676	 8.24261255442741E-02 
1677	 7.81559788954543E-02 
1678	 7.74467839542345E-02 
1679	 7.99883991263318E-02 
1680	 7.65221155171281E-02 
1681	 7.66758334788653E-02 
1682	 7.83317134288524E-02 
1683	 7.75414692022329E-02 
1684	 8.08451168693126E-02 
1685	 8.33030534305347E-02 
1686	 8.45894759325824E-02 
1687	 8.71341367763338E-02 
1688	 8.90195539361895E-02 
1689	 8.95241841130293E-02 
1690	 8.93170600106757E-02 
1691	 8.72489836893841E-02 
1692	 0.084995193683422 
1693	 8.54107237947689E-02 
1694	 8.64376217361078E-02 
1695	 8.42475791352417E-02 
1696	 7.90444428566182E-02 
1697	 7.49176388118981E-02 
1698	 7.21866139358719E-02 
1699	 7.22417854235062E-02 
1700	 7.76447866709641E-02 
1701	 8.37754127474029E-02 
1702	 8.80846509371165E-02 
1703	 9.15774608708113E-02 
1704	 9.15889452445176E-02 
1705	 9.14407140669833E-02 
1706	 8.99842482930866E-02 
1707	 8.67547251458913E-02 
1708	 8.49662314315474E-02 
1709	 8.44947996070784E-02 
1710	 8.63672752403485E-02 
1711	 8.76094572353133E-02 
1712	 8.91194758133198E-02 
1713	 8.53995174746098E-02 
1714	 8.21677758142322E-02 
1715	 8.19447051118999E-02 
1716	 8.16341182101085E-02 
1717	 8.74996877543391E-02 
1718	 8.80929337481617E-02 
1719	 8.54558250974532E-02 
1720	 8.29637822311214E-02 
1721	 8.21261401305784E-02 
1722	 0.084256338886504 
1723	 8.32980750617761E-02 
1724	 0.080656800164167 
1725	 7.86817948238763E-02 
1726	 7.46096261995828E-02 
1727	 0.072822696833942 
1728	 7.29181074995853E-02 
1729	 7.42472196699381E-02 
1730	 7.75162228395589E-02 
1731	 7.85486439114425E-02 
1732	 8.21557839694693E-02 
1733	 7.97691205497272E-02 
1734	 7.00411322113078E-02 
1735	 6.76615747769558E-02 
1736	 6.30900665569612E-02 
1737	 6.29737851788829E-02 
1738	 7.49429977107885E-02 
1739	 0.074668649481351 
1740	 0.072794152497658 
1741	 7.38943643275691E-02 
1742	 0.062883950184046 
1743	 5.77810180272384E-02 
1744	 6.49892018641022E-02 
1745	 7.03746563070161E-02 
1746	 7.56393879124646E-02 
1747	 7.55006499830525E-02 
1748	 7.03352948958534E-02 
1749	 6.66145837703501E-02 
1750	 6.22566947647009E-02 
1751	 6.29106177981842E-02 
1752	 6.96967129133328E-02 
1753	 7.22755892882459E-02 
1754	 6.55370359441344E-02 
1755	 0.061903718930794 
1756	 6.38577163711308E-02 
1757	 6.03403130848026E-02 
1758	 6.29925067324961E-02 
1759	 6.69044110799681E-02 
1760	 6.25532145547791E-02 
1761	 6.26041923485438E-02 
1762	 6.34007049972537E-02 
1763	 6.46428903643196E-02 
1764	 6.38468654713658E-02 
1765	 0.062157573397014 
1766	 7.13829104638894E-02 
1767	 8.12677927645035E-02 
1768	 8.90697294893238E-02 
1769	 0.096604851442633 
1770	 9.15789090908389E-02 
1771	 9.14507832036927E-02 
1772	 0.107345156975259 
1773	 0.104446507158414 
1774	 0.114109844732133 
1775	 0.135253218829945 
1776	 0.128291704703185 
1777	 0.111881063931807 
1778	 0.100973411681189 
1779	 7.21071548117342E-02 
1780	 6.35530357868327E-02 
1781	 0.104039940192459 
1782	 0.118055061304064 
1783	 0.116720586315317 
1784	 0.109390183109997 
1785	 9.02494726883651E-02 
1786	 0.065185612187826 
1787	 4.47915893820289E-02 
1788	 3.52036231281386E-02 
1789	 9.61839250337709E-03 
1790	 4.92600672835925E-02 
1791	 7.17476050348495E-02 
1792	 6.01964332290767E-02 
1793	 3.83328209388649E-02 
1794	-4.56758514215715E-02 
1795	-0.101994693665765 
1796	-0.189006105944529 
1797	-0.321366755600928 
1798	-0.275531003926391 
1799	-0.36104777720658 
1800	-0.507400004467337 
1801	 0.933387188856172 
1802	 0.980061160535438 
1803	 1.19096300176414 
1804	 1.15947062358952 
1805	 0.84732612621806 
1806	 0.765824317015586 
1807	 0.684632453693875 
1808	 0.453085541626703 
1809	 0.44400236126795 
1810	 0.717271542046974 
1811	 0.787449334683721 
1812	 0.895271569220752 
1813	 0.896749515770447 
1814	 0.648924383899199 
1815	 0.625363704116961 
1816	 0.650977225787458 
1817	 0.750954971450572 
1818	 0.775775491150824 
1819	 0.866155840890141 
1820	 0.916872551286288 
1821	 0.882480121327908 
1822	 0.914621547533539 
1823	 1.01103912633854 
1824	 1.12667060330678 
1825	 1.21595011358188 
1826	 1.51041236252392 
1827	 1.53119082951381 
1828	 1.59974824344845 
1829	 1.39308687907674 
1830	 0.877907508591581 
1831	 0.751353105559254 
1832	 0.711318685381825 
1833	 0.604127691811239 
1834	 0.486652013776655 
1835	 0.446572839086782 
1836	 0.437766133768412 
1837	 0.419884053749038 
1838	 0.428584602758785 
1839	 0.503755692948347 
1840	 0.579771791624932 
1841	 0.660673255254301 
1842	 0.760546433370536 
1843	 0.939027626004341 
1844	 1.03111130656999 
1845	 1.10808859354843 
1846	 1.1162506001058 
1847	 1.08788146500021 
1848	 1.02894569868838 
1849	 0.908415940472257 
1850	 0.61590822800007 
1851	 0.560273317971546 
1852	 0.66624695783802 
1853	 0.635406391671972 
1854	 0.61370576523383 
1855	 0.633334982693965 
1856	 0.643166802412073 
1857	 0.55761528143667 
1858	 0.559935418762287 
1859	 0.675794270223959 
1860	 0.707073701180968 
1861	 0.67391065708986 
1862	 0.675556085197381 
1863	 0.671312630414601 
1864	 0.69665652036597 
1865	 0.74509823415014 
1866	 0.797455581319701 
1867	 0.8673158170253 
1868	 0.989941897528949 
1869	 1.08799536060816 
1870	 1.22338545814241 
1871	 1.20321401410612 
1872	 1.11959607633091 
1873	 1.00848232505202 
1874	 0.705174030975639 
1875	 0.584304570144353 
1876	 0.491729129070618 
1877	 0.489524756892543 
1878	 0.531528249504418 
1879	 0.655772388745746 
1880	 0.750078203599125 
1881	 1.01345048610683 
1882	 1.07659587922017 
1883	 1.04494919562521 
1884	 1.04576669381463 
1885	 0.906958838785952 
1886	 0.833903935460758 
1887	 0.850981764434245 
1888	 0.753812509143898 
1889	 0.733992771398259 
1890	 0.690911951941369 
1891	 0.706432884465596 
1892	 0.800245972298657 
1893	 0.863127245303638 
1894	 0.976474151827808 
1895	 1.02883720896944 
1896	 1.14228767384511 
1897	 1.09898800205005 
1898	 0.930979043468138 
1899	 0.775452009553707 
1900	 0.614827231803905 
1901	 0.450061692884498 
1902	 0.407675553507285 
1903	 0.31005185436333 
1904	 0.313588013729434 
1905	 0.456910529793629 
1906	 0.579494494770438 
1907	 0.772865198513099 
1908	 0.988958622219191 
1909	 1.17487032624984 
1910	 1.29591063660742 
1911	 1.27595995647513 
1912	 0.968784822133659 
1913	 0.987542836747058 
1914	 1.11040523906015 
1915	 1.11768463243847 
1916	 1.37350267152569 
1917	 1.29409000556041 
1918	 0.850056298365083 
1919	 0.604823124282944 
1920	 0.428686200483927 
1921	 0.487424430879289 
1922	 0.555758287228483 
1923	 0.723535726592591 
1924	 0.857730695257865 
1925	 1.07861649533077 
1926	 1.2266778202503 
1927	 1.58527578017519 
1928	 1.77269158306444 
1929	 1.85623408892107 
1930	 1.67033813852381 
1931	 1.55218953593935 
1932	 1.48076082753336 
1933	 1.35720751616943 
1934	 1.44260529197711 
1935	 1.30866550431398 
1936	 1.04295028740121 
1937	 0.815613297287511 
1938	 0.45088240407427 
1939	 0.323146944311304 
1940	 0.267680017479594 
1941	 0.291152009224517 
1942	 0.413714573331456 
1943	 0.63389371525313 
1944	 0.873037936643635 
1945	 1.12261137093323 
1946	 1.19511335052563 
1947	 1.16229155948708 
1948	 1.14265219155886 
1949	 0.880339937974586 
1950	 0.822281648276129 
1951	 0.965160921751353 
1952	 0.918173092396291 
1953	 0.806320053604901 
1954	 0.647850665166786 
1955	 0.569100804414078 
1956	 0.582381018487423 
1957	 0.751261014009171 
1958	 0.939710035847653 
1959	 1.00436118384418 
1960	 0.992534889789973 
1961	 1.01796889392866 
1962	 1.02499583956733 
1963	 0.990285471244037 
1964	 1.0031012628653 
1965	 0.953644934664259 
1966	 0.735151409803541 
1967	 0.684549405090921 
1968	 0.632584788635296 
1969	 0.541081692343478 
1970	 0.517210040770012 
1971	 0.511609990550217 
1972	 0.551102542723228 
1973	 0.670507039629498 
1974	 0.703070137983113 
1975	 0.761087068145304 
1976	 0.750762659114507 
1977	 0.63095982349941 
1978	 0.572889405873632 
1979	 0.544977254729013 
1980	 0.544366753701784 
1981	 0.566265386343527 
1982	 0.583154985036563 
1983	 0.563200043009298 
1984	 0.489796816446821 
1985	 0.494775619441743 
1986	 0.5280528903806 
1987	 0.517612173216587 
1988	 0.548896224616798 
1989	 0.530476030638079 
1990	 0.455612631112985 
1991	 0.374435969941126 
1992	 0.264401035826455 
1993	 0.27797470525597 
1994	 0.244215915238872 
1995	 0.211881693676572 
1996	 0.238261285141954 
1997	 0.327138990503836 
1998	 0.359007690593327 
1999	 0.419933476775867 
2000	 0.469568486666857 
2001	 0.509721806731189 
2002	 0.58682026460322 
2003	 0.662936437743334 
2004	 0.697970785697841 
2005	 0.661541167956299 
2006	 0.497214604758396 
2007	 0.473523326917621 
2008	 0.577456630640325 
2009	 0.607882355460207 
2010	 0.753364009100403 
2011	 0.768571153509991 
2012	 0.633359317228801 
2013	 0.575599349639044 
2014	 0.525725633555967 
2015	 0.507973051715638 
2016	 0.460984181353058 
2017	 0.412247220186654 
2018	 0.325415670953171 
2019	 0.191655308373367 
2020	 0.148737009871746 
2021	 0.142624413818931 
2022	 0.13731401991356 
2023	 0.212885397059297 
2024	 0.257972797030558 
2025	 0.314112895821965 
2026	 0.324906016708001 
2027	 0.331977997795895 
2028	 0.303760079603144 
2029	 0.260742931901341 
2030	 0.268596650449744 
2031	 0.25786207140418 
2032	 0.252125266946561 
2033	 0.24790669831846 
2034	 0.203958738492073 
2035	 0.195609509327681 
2036	 0.192474541467529 
2037	 0.184190119723476 
2038	 0.159740495926683 
2039	 0.172626838135003 
2040	 0.213363618413274 
2041	 0.239346967676134 
2042	 0.2723977079542 
2043	 0.342737469199358 
2044	 0.374069581493983 
2045	 0.375004155075778 
2046	 0.388862544099614 
2047	 0.37354615154494 
2048	 0.310064686251696 
2049	 0.271108405613832 
2050	 0.242182756284871 
2051	 0.198443925564957 
2052	 0.190674359629923 
2053	 0.250522259168715 
2054	 0.252570759480147 
2055	 0.246142587653734 
2056	 0.212195172471663 
2057	 0.177662442543245 
2058	 0.157483329233277 
2059	 0.104065849138629 
2060	 0.122614660124269 
2061	 0.152605276329393 
2062	 0.162937441162279 
2063	 0.233424510730456 
2064	 0.287249796514744 
2065	 0.336501399806832 
2066	 0.351030032159653 
2067	 0.355850514057766 
2068	 0.343459937135174 
2069	 0.333816162433981 
2070	 0.314811806010797 
2071	 0.288013807599007 
2072	 0.26201655678561 
2073	 0.240330615774066 
2074	 0.224907487142415 
2075	 0.240045601108442 
2076	 0.269401229370238 
2077	 0.253288971979091 
2078	 0.251088146231875 
2079	 0.250601294737088 
2080	 0.227032869072401 
2081	 0.238009214575441 
2082	 0.230009126434032 
2083	 0.201086578349299 
2084	 0.198838318226116 
2085	 0.208793620352965 
2086	 0.195963441909141 
2087	 0.228944591824739 
2088	 0.251825594796416 
2089	 0.241568225801439 
2090	 0.276876716770871 
2091	 0.265244043757275 
2092	 0.242603334057773 
2093	 0.285473671623664 
2094	 0.28318001755582 
2095	 0.286289746670375 
2096	 0.330097419666528 
2097	 0.314318531357121 
2098	 0.280590460522974 
2099	 0.270282360975176 
2100	 0.273876560029471 
2101	 0.265441261627219 
2102	 0.248790751527574 
2103	 0.263965162512918 
2104	 0.284178794634363 
2105	 0.274078188435273 
2106	 0.283307977896837 
2107	 0.293896435454601 
2108	 0.289868608506909 
2109	 0.278169589863359 
2110	 0.285718899109766 
2111	 0.308623838475954 
2112	 0.319865734210439 
2113	 0.334195502186462 
2114	 0.339172030582927 
2115	 0.343098554356007 
2116	 0.327149020151456 
2117	 0.28171998003194 
2118	 0.265956540111668 
2119	 0.260363174696247 
2120	 0.219212124774066 
2121	 0.215535475510449 
2122	 0.233076943645527 
2123	 0.238557223014842 
2124	 0.24239768371064 
2125	 0.260538718733658 
2126	 0.274981161583521 
2127	 0.248332577180606 
2128	 0.242442252431721 
2129	 0.236106833595121 
2130	 0.211483254483852 
2131	 0.19258956613976 
2132	 0.162220345040733 
2133	 0.143651961842264 
2134	 0.10953697560677 
2135	 0.105751681944648 
2136	 0.121867747632822 
2137	 0.154351719977992 
2138	 0.166188818033879 
2139	 0.189029947185175 
2140	 0.202208088692727 
2141	 0.195547395553031 
2142	 0.207079168507475 
2143	 0.214805636233237 
2144	 0.208476105943823 
2145	 0.207240804642634 
2146	 0.194902958928634 
2147	 0.173864488427077 
2148	 0.168832288288221 
2149	 0.194985904506827 
2150	 0.212216234718978 
2151	 0.238087975100646 
2152	 0.257044245296424 
2153	 0.282587597167296 
2154	 0.287483663293029 
2155	 0.274705874559648 
2156	 0.299376500388456 
2157	 0.278480136828612 
2158	 0.240433208337665 
2159	 0.193752714448467 
2160	 0.136043562834415 
2161	 0.111667159104638 
2162	 0.128275666690324 
2163	 0.147687527381927 
2164	 0.17793075578907 
2165	 0.214459786806834 
2166	 0.213038986054482 
2167	 0.204079423654506 
2168	 0.190913798247599 
2169	 0.170712938503927 
2170	 0.17030462906661 
2171	 0.179659619878606 
2172	 0.221903382486944 
2173	 0.248435694190186 
2174	 0.294229087682298 
2175	 0.297935206505207 
2176	 0.274794101883613 
2177	 0.218032932104624 
2178	 0.194630886683435 
2179	 0.171513053595582 
2180	 0.145354203141184 
2181	 0.159389355808777 
2182	 0.166734821750428 
2183	 0.165959867968277 
2184	 0.187619716209667 
2185	 0.223788388663893 
2186	 0.244140718225785 
2187	 0.246816980962868 
2188	 0.241963245165266 
2189	 0.244544494093229 
2190	 0.240500883886047 
2191	 0.24181988979247 
2192	 0.252416195790437 
2193	 0.278477463577101 
2194	 0.283110561401602 
2195	 0.288752393046582 
2196	 0.288696378779271 
2197	 0.26923588243273 
2198	 0.260982633576363 
2199	 0.275097379548232 
2200	 0.283582540176513 
2201	 0.299264835372618 
2202	 0.292799542128609 
2203	 0.27503313794667 
2204	 0.279053545346656 
2205	 0.25303763162756 
2206	 0.209136536976618 
2207	 0.186025981612203 
2208	 0.147664938740865 
2209	 0.141481983562974 
2210	 0.16643525971902 
2211	 0.193364085425575 
2212	 0.229016755265954 
2213	 0.212945860382838 
2214	 0.185052609010443 
2215	 0.174566259545551 
2216	 0.13675955648707 
2217	 0.145990601308974 
2218	 0.222682651381415 
2219	 0.23259396074578 
2220	 0.218632997526866 
2221	 0.224991209195251 
2222	 0.208789084368021 
2223	 0.186147733984522 
2224	 0.213973120963839 
2225	 0.230163861167706 
2226	 0.23059032102133 
2227	 0.245583779384907 
2228	 0.257369841899917 
2229	 0.280093439642159 
2230	 0.301332863549361 
2231	 0.280182539108864 
2232	 0.267293197319703 
2233	 0.263568600728386 
2234	 0.236306454809948 
2235	 0.248922894271403 
2236	 0.266057284244172 
2237	 0.259214254744214 
2238	 0.26216862073656 
2239	 0.261469407282406 
2240	 0.301118712383126 
2241	 0.371764441648449 
2242	 0.41686378714911 
2243	 0.501243712076847 
2244	 0.533020655351543 
2245	 0.508515543712484 
2246	 0.477997728238886 
2247	 0.416212712967159 
2248	 0.366164011189974 
2249	 0.301209905472794 
2250	 0.269937083851091 
2251	 0.229705827840221 
2252	 0.239408570406453 
2253	 0.265538090104261 
2254	 0.293954313578464 
2255	 0.360732211559208 
2256	 0.366376210720274 
2257	 0.34635030749213 
2258	 0.362517211539246 
2259	 0.336081787043013 
2260	 0.355188770430981 
2261	 0.369705099005387 
2262	 0.341996210700157 
2263	 0.353293276008218 
2264	 0.318039748878474 
2265	 0.283931400357733 
2266	 0.299364005226697 
2267	 0.290977959204378 
2268	 0.300542161767881 
2269	 0.318196326147787 
2270	 0.332706726250448 
2271	 0.324480492503946 
2272	 0.288093826489513 
2273	 0.257581404033969 
2274	 0.180387796261685 
2275	 0.174921665640196 
2276	 0.23974893483397 
2277	 0.273160069863609 
2278	 0.347621788177592 
2279	 0.379433098812047 
2280	 0.345597581419078 
2281	 0.331402364177933 
2282	 0.336193027247527 
2283	 0.320446008975226 
2284	 0.287978938446515 
2285	 0.25007685415022 
2286	 0.244749085687776 
2287	 0.222227338805368 
2288	 0.227916725138181 
2289	 0.239063589744191 
2290	 0.231549029393196 
2291	 0.239949877253572 
2292	 0.25791371892315 
2293	 0.290362468754049 
2294	 0.310728277947513 
2295	 0.292063207637762 
2296	 0.289760261299574 
2297	 0.344989855620683 
2298	 0.403993050968682 
2299	 0.441073721701578 
2300	 0.411270593209375 
2301	 0.314592380269324 
2302	 0.232124698828293 
2303	 0.225249967034759 
2304	 0.238149301371965 
2305	 0.250205690093948 
2306	 0.270540037427372 
2307	 0.232831414690415 
2308	 0.23413334776006 
2309	 0.25021205395843 
2310	 0.268669676322173 
2311	 0.321842866387201 
2312	 0.343392077313682 
2313	 0.352619881784425 
2314	 0.372502496698291 
2315	 0.372785589106914 
2316	 0.376150413109089 
2317	 0.395365094057428 
2318	 0.365300483808339 
2319	 0.269031368684576 
2320	 0.23747306212056 
2321	 0.204659834027628 
2322	 0.221629996193455 
2323	 0.356366526850783 
2324	 0.411363572554674 
2325	 0.450640168837516 
2326	 0.459060478253151 
2327	 0.390224366395753 
2328	 0.387853050613599 
2329	 0.383880156248807 
2330	 0.409358959658211 
2331	 0.514358457841537 
2332	 0.5576203647955 
2333	 0.613525294693717 
2334	 0.619780858104848 
2335	 0.539226128462272 
2336	 0.509433562262462 
2337	 0.454257706801357 
2338	 0.429972378698703 
2339	 0.451374144743927 
2340	 0.405556953473768 
2341	 0.447958963273345 
2342	 0.455332431691491 
2343	 0.471913654000591 
2344	 0.57109711137869 
2345	 0.596499732445575 
2346	 0.711718974217724 
2347	 0.617687461828481 
2348	 0.488757586418819 
2349	 0.4642809647202 
2350	 0.39402778542127 
2351	 0.443440127761822 
2352	 0.519625786067111 
2353	 0.58338991382583 
2354	 0.657333918673162 
2355	 0.668673122534592 
2356	 0.725779503903075 
2357	 0.723323251378021 
2358	 0.61842169617581 
2359	 0.66794405172741 
2360	 0.559853707810199 
2361	 0.306250099553164 
2362	 0.21952701262452 
2363	 0.17952497753826 
2364	 0.136909459316168 
2365	 0.268937039366018 
2366	 0.498705402537581 
2367	 0.522974524591712 
2368	 0.507492216680212 
2369	 0.484911475740318 
2370	 0.388857210060934 
2371	 0.326610683112193 
2372	 0.241028849896358 
2373	 0.264848669902177 
2374	 0.295431574540052 
2375	 0.398614659146395 
2376	 0.702841252677861 
2377	 0.814616170107953 
2378	 0.934690063953543 
2379	 0.924577724230237 
2380	 0.624998449846724 
2381	 0.598810829566931 
2382	 0.657786266245243 
2383	 0.689534539469729 
2384	 1.00147057414257 
2385	 0.98993803088009 
2386	 0.626986443225625 
2387	 0.617764960473351 
2388	 0.647055404182861 
2389	 0.663754817491931 
2390	 0.970264013880334 
2391	 0.923130893655989 
2392	 0.658540497380166 
2393	 0.604091914135758 
2394	 0.536624034847432 
2395	 0.497966274301371 
2396	 0.485564246024169 
2397	 0.500849012996826 
2398	 0.529732327849909 
2399	 0.570305961553235 
2400	 0.684284492193283 
2401	 0.680968441356314 
2402	 0.562779829366045 
2403	 0.613645316959715 
2404	 0.726671484847911 
2405	 0.796366234834852 
2406	 0.98645365592018 
2407	 1.00855608512454 
2408	 0.880782378961961 
2409	 0.855546316978443 
2410	 0.866277212895331 
2411	 0.804846163654764 
2412	 0.715061097746949 
2413	 0.616314046314815 
2414	 0.390365427411968 
2415	 0.318978941569816 
2416	 0.375776262230794 
2417	 0.345902506867917 
2418	 0.258933811809851 
2419	 0.359555483402975 
2420	 0.57145112291846 
2421	 0.860969403745022 
2422	 1.513573317371 
2423	 1.5023111006205 
2424	 1.09649540707166 
2425	 0.951396890187039 
2426	 0.658429401848766 
2427	 0.6121420011488 
2428	 0.769613947033737 
2429	 0.768829157065944 
2430	 0.735758796870207 
2431	 0.790876854461601 
2432	 0.796043678137025 
2433	 0.852183758785149 
2434	 1.14599090898277 
2435	 1.1247585493212 
2436	 0.884130570522221 
2437	 0.843015750464396 
2438	 0.757405305933245 
2439	 0.784675252006266 
2440	 0.908984813365511 
2441	 1.10824213844735 
2442	 1.50243791342807 
2443	 1.82195979854165 
2444	 2.28146343010179 
2445	 3.06440655212675 
2446	 8.35619780678775 
2447	 4.79922667832962 
2448	 2.41064694732294 
2449	 1.76044335891256 
2450	 1.00412229950668 
2451	 0.758107587143486 
2452	 0.785051332950699 
2453	 0.840986529564694 
2454	 1.18711004535842 
2455	 1.44754758996062 
2456	 1.26162774920231 
2457	 1.10081336190244 
2458	 0.77367700613264 
2459	 0.242821374828445 
2460	-0.032289674331551 
2461	-0.935179498446643 
2462	-1.32419101738155 
2463	-0.422677975008881 
2464	 0.400939364157068 
2465	 1.24399328084936 
2466	 1.15360671875398 
2467	 0.71962221374673 
2468	 0.690253692921533 
2469	 0.557499956690759 
2470	 0.568430569326411 
2471	 1.05847663818293 
2472	 1.2963223251997 
2473	 1.34542238791643 
2474	 1.49003434567496 
2475	 1.31459798377658 
2476	 1.24312785741163 
2477	 1.29592977835625 
2478	 1.27242069008477 
2479	 1.0025383591877 
2480	 1.05802228762922 
2481	 1.67584522382051 
2482	 1.81008768987678 
2483	 1.68093008028853 
2484	 1.79254484031962 
2485	 1.2552040133967 
2486	 1.30964206875197 
2487	 4.03483825260902 
2488	 10.4369336616943 
2489	-23.6994238170157 
2490	 21.6637790028732 
2491	 3.63351402103842 
2492	 1.89090211109957 
2493	 0.850761840053821 
2494	 0.609703991012964 
2495	 0.273705678891253 
2496	 0.226486991768439 
2497	 0.393635339343648 
2498	 0.578729004139865 
2499	 1.30841111926607 
2500	 1.603784776142 
