Wavelength	000022.asd
350	 5.95696241165728E-03 
351	 9.28677337611814E-03 
352	-2.23487757279106E-03 
353	-3.54457708141637E-03 
354	 1.52886900582495E-03 
355	 5.55476883076559E-03 
356	 4.55206660908714E-03 
357	-1.39067980262114E-03 
358	-1.24546618576817E-02 
359	-1.00998911973273E-02 
360	 5.45685012955596E-03 
361	 4.25809615765031E-03 
362	 2.26384100321658E-03 
363	 1.71786434479624E-03 
364	 1.93375260290759E-03 
365	 2.14053233489581E-03 
366	 5.05584004217982E-03 
367	 7.70899015449254E-03 
368	 6.78913676270581E-03 
369	 8.21757523043004E-03 
370	 8.09207755362112E-03 
371	 7.86754469042884E-03 
372	 1.17325634864905E-02 
373	 1.06629303203881E-02 
374	 9.0901123909827E-03 
375	 9.93341363428694E-03 
376	 1.19665079572148E-02 
377	 7.19184802068294E-03 
378	 4.50379039625848E-03 
379	 9.37250276995798E-03 
380	 9.42365432449351E-03 
381	 8.55005158195361E-03 
382	 7.99440351915737E-03 
383	 8.21720377732879E-03 
384	 8.89552408323866E-03 
385	 1.28897646005764E-02 
386	 1.73141634496629E-02 
387	 1.64768441080783E-02 
388	 1.47727551063194E-02 
389	 1.64774526831659E-02 
390	 1.86850088214584E-02 
391	 1.09757235852935E-02 
392	 1.30380148514388E-02 
393	 1.62769961435233E-02 
394	 1.40329293433891E-02 
395	 0.017705550121486 
396	 1.79583353910416E-02 
397	 1.69310771430264E-02 
398	 1.87173058185798E-02 
399	 2.05737212255904E-02 
400	 2.33530968895768E-02 
401	 2.66136522312853E-02 
402	 2.89464391589522E-02 
403	 2.81173967547014E-02 
404	 2.77524479664013E-02 
405	 0.030006304093382 
406	 3.43504704752028E-02 
407	 3.49744945725161E-02 
408	 0.034263779021367 
409	 3.56871971405621E-02 
410	 4.05566707357156E-02 
411	 4.27537122706927E-02 
412	 4.45512263340618E-02 
413	 5.00025549009758E-02 
414	 5.21367552774847E-02 
415	 5.41641246419037E-02 
416	 5.68799199554699E-02 
417	 5.86189286047703E-02 
418	 6.27410361749145E-02 
419	 6.57505494389415E-02 
420	 6.59688421426987E-02 
421	 6.67461124068183E-02 
422	 7.09280044929736E-02 
423	 7.56796308955779E-02 
424	 0.077458046805049 
425	 7.75645162476714E-02 
426	 7.87133510563843E-02 
427	 8.18060052434473E-02 
428	 8.59002146361045E-02 
429	 8.65190945036128E-02 
430	 8.80887526019482E-02 
431	 9.15852452733111E-02 
432	 0.092091896668744 
433	 9.32225364471228E-02 
434	 9.49385739947781E-02 
435	 9.62320421644098E-02 
436	 9.55097744141054E-02 
437	 9.59219548644733E-02 
438	 9.77349113712828E-02 
439	 9.95952038906002E-02 
440	 9.99862522046761E-02 
441	 9.97682200377881E-02 
442	 9.98725964155992E-02 
443	 0.10097120508153 
444	 0.100620836350751 
445	 9.99888935519968E-02 
446	 0.100350643212612 
447	 0.101489321169657 
448	 0.101830063718861 
449	 0.101458066398509 
450	 0.101140165953805 
451	 0.100670501657642 
452	 0.100755215069539 
453	 0.101232967171093 
454	 0.10101916070651 
455	 0.100289961021425 
456	 9.94641050040429E-02 
457	 9.89712594379493E-02 
458	 9.93630063525961E-02 
459	 9.76855891525656E-02 
460	 9.57967147547705E-02 
461	 9.66580745924924E-02 
462	 9.69876797641582E-02 
463	 9.55105874007092E-02 
464	 9.31933197907761E-02 
465	 9.30155930432812E-02 
466	 0.092416763981324 
467	 9.15976601057616E-02 
468	 0.091022280853483 
469	 9.04759107286599E-02 
470	 8.96738550810764E-02 
471	 8.80178026444947E-02 
472	 8.54056445869251E-02 
473	 8.51632806028551E-02 
474	 8.49577272472409E-02 
475	 8.38548776231636E-02 
476	 8.28340705652804E-02 
477	 8.22866284742197E-02 
478	 8.10584350522651E-02 
479	 7.88546746140533E-02 
480	 7.85168837885352E-02 
481	 7.77837677287584E-02 
482	 7.63075250677686E-02 
483	 7.47302156545015E-02 
484	 7.42286734728725E-02 
485	 0.073165264075673 
486	 7.11412778952669E-02 
487	 6.96283469736175E-02 
488	 6.99186211088074E-02 
489	 7.00529553757409E-02 
490	 6.84868121233435E-02 
491	 6.66769125560033E-02 
492	 0.066443951059521 
493	 6.68563147591942E-02 
494	 6.57932453220141E-02 
495	 0.063890850946678 
496	 6.29115559466042E-02 
497	 6.25939274967309E-02 
498	 5.99712179356934E-02 
499	 5.93679402120775E-02 
500	 6.00845549999969E-02 
501	 6.01165316862252E-02 
502	 5.77018521322287E-02 
503	 5.65728829421111E-02 
504	 5.66964839893257E-02 
505	 5.58547547436045E-02 
506	 5.54914663858872E-02 
507	 5.52496891090827E-02 
508	 0.05478942121071 
509	 5.40693124083254E-02 
510	 5.39311290290469E-02 
511	 5.35926604517717E-02 
512	 5.24528827111705E-02 
513	 5.25843742080012E-02 
514	 5.29901847907722E-02 
515	 5.28918475897722E-02 
516	 5.19016768462298E-02 
517	 5.18657206245376E-02 
518	 5.19669706161147E-02 
519	 5.15354364313057E-02 
520	 5.11047005274345E-02 
521	 5.03152238793168E-02 
522	 4.98378254819951E-02 
523	 5.01691732744632E-02 
524	 4.91327037241592E-02 
525	 4.87217489139962E-02 
526	 4.94042019220187E-02 
527	 4.99137970663168E-02 
528	 0.049870935316916 
529	 4.93919056302639E-02 
530	 4.88855932937046E-02 
531	 4.91020392505522E-02 
532	 4.95215306951027E-02 
533	 5.02414618489993E-02 
534	 5.12273822246912E-02 
535	 4.93549461879419E-02 
536	 4.88857690657373E-02 
537	 0.050528005449823 
538	 0.049567613100447 
539	 4.96491845869694E-02 
540	 5.02627811754712E-02 
541	 5.02549747919467E-02 
542	 5.03005957666045E-02 
543	 5.00637949044739E-02 
544	 5.01389002959564E-02 
545	 5.14408345527199E-02 
546	 5.13100991597029E-02 
547	 5.12037231501428E-02 
548	 0.052071953947586 
549	 0.052937780287217 
550	 5.31736943176631E-02 
551	 5.35119247022217E-02 
552	 5.46063468541126E-02 
553	 5.39279301419488E-02 
554	 5.41096765730994E-02 
555	 5.54795020417073E-02 
556	 5.59880008304456E-02 
557	 0.056331610235978 
558	 5.73723363226306E-02 
559	 5.92544578520841E-02 
560	 6.00609883831945E-02 
561	 6.09520433965676E-02 
562	 6.20643537174198E-02 
563	 6.31037446230032E-02 
564	 6.43675690344507E-02 
565	 6.56090570830482E-02 
566	 6.68694698126506E-02 
567	 6.87098276976635E-02 
568	 6.93102120793925E-02 
569	 0.070535137860214 
570	 7.40339906573974E-02 
571	 7.59312625534853E-02 
572	 0.07723117127374 
573	 7.89719546563035E-02 
574	 8.19353752035207E-02 
575	 8.42101018184647E-02 
576	 8.59417670568633E-02 
577	 8.78673433346718E-02 
578	 9.14434238095242E-02 
579	 0.093606029155922 
580	 9.55227098140979E-02 
581	 0.099408600815165 
582	 0.103055046481588 
583	 0.105722745050609 
584	 0.10824532570312 
585	 0.113066022587196 
586	 0.116158186695287 
587	 0.118362739690928 
588	 0.121475388994807 
589	 0.125645034927283 
590	 0.12947341266284 
591	 0.133127857578155 
592	 0.138029365343923 
593	 0.142869956099399 
594	 0.147470216120172 
595	 0.151659643727273 
596	 0.155133851977292 
597	 0.160230310533017 
598	 0.165815479952026 
599	 0.170220965795276 
600	 0.175210108997879 
601	 0.17983692245791 
602	 0.184154433748351 
603	 0.189089343988081 
604	 0.194585503713812 
605	 0.199872586742042 
606	 0.204774516640699 
607	 0.211061036543115 
608	 0.217262702338497 
609	 0.222850384165712 
610	 0.22793022500719 
611	 0.233929484733397 
612	 0.240138169133351 
613	 0.24628021892101 
614	 0.252874051812969 
615	 0.258614735619265 
616	 0.264406636587013 
617	 0.271125029029308 
618	 0.277622111459784 
619	 0.28347164126815 
620	 0.289081756502466 
621	 0.295258250504137 
622	 0.301791363752453 
623	 0.307760023797524 
624	 0.313299276304206 
625	 0.321335901696848 
626	 0.32836218083755 
627	 0.333574280021997 
628	 0.337646229170253 
629	 0.343195547284089 
630	 0.34920696974571 
631	 0.355250792733753 
632	 0.361558698787616 
633	 0.367930956300498 
634	 0.373793037625942 
635	 0.378931595295703 
636	 0.384204948298883 
637	 0.38951777536258 
638	 0.394555275590693 
639	 0.399036556618012 
640	 0.40299708425588 
641	 0.407707991161452 
642	 0.413144948884626 
643	 0.417025680528409 
644	 0.420892367699503 
645	 0.424748448421077 
646	 0.428423577938458 
647	 0.433225900123235 
648	 0.436085748659826 
649	 0.437850617904794 
650	 0.442730049453553 
651	 0.445540179835813 
652	 0.448903023956982 
653	 0.453938981040919 
654	 0.45610353344882 
655	 0.457655389690583 
656	 0.460176470985032 
657	 0.464237114966523 
658	 0.467813830546236 
659	 0.469715206285333 
660	 0.470821042579124 
661	 0.473719796627867 
662	 0.476769400179575 
663	 0.478628372575255 
664	 0.479121016057076 
665	 0.481834638313278 
666	 0.483792295148873 
667	 0.484391260144659 
668	 0.484675516977189 
669	 0.48709540747376 
670	 0.489208547308738 
671	 0.489606585845424 
672	 0.489393404648344 
673	 0.491890318550939 
674	 0.494882225547059 
675	 0.495445771185378 
676	 0.495439323770753 
677	 0.496487320005477 
678	 0.498238142198486 
679	 0.498893922667506 
680	 0.500064978519456 
681	 0.500847881135815 
682	 0.501024116106642 
683	 0.502698048940073 
684	 0.503760257035079 
685	 0.504829092869136 
686	 0.507187945479121 
687	 0.507538463510322 
688	 0.508259144444105 
689	 0.510149307094468 
690	 0.511868414960621 
691	 0.51419668135104 
692	 0.515252853063287 
693	 0.514497992150347 
694	 0.516465925960365 
695	 0.519034524733316 
696	 0.52261669736251 
697	 0.527628257722281 
698	 0.526128148213386 
699	 0.524995377202491 
700	 0.527730711763767 
701	 0.53149196032684 
702	 0.534249915061584 
703	 0.535550598103864 
704	 0.536198888699332 
705	 0.538529911230478 
706	 0.541175399830484 
707	 0.543473799574043 
708	 0.54534789210328 
709	 0.547947238589267 
710	 0.550452195754956 
711	 0.552624445364364 
712	 0.555308615973952 
713	 0.557407048080456 
714	 0.558983987635695 
715	 0.560402087696388 
716	 0.561852423964283 
717	 0.563099399931273 
718	 0.564532807097904 
719	 0.567158843907479 
720	 0.56997434200271 
721	 0.573307560919901 
722	 0.576847798571171 
723	 0.579175547286387 
724	 0.579404596796803 
725	 0.580488322285099 
726	 0.584900080894797 
727	 0.587478768896628 
728	 0.589397410840045 
729	 0.591339248813023 
730	 0.593656216083612 
731	 0.596797495174598 
732	 0.600694635786393 
733	 0.604492245803533 
734	 0.60688924263515 
735	 0.608109431462487 
736	 0.609302250474766 
737	 0.611636819797216 
738	 0.615787979426722 
739	 0.618389875879057 
740	 0.619469141012696 
741	 0.620993768289596 
742	 0.622602793434229 
743	 0.62473448647905 
744	 0.627362811163204 
745	 0.629772644885934 
746	 0.630370551121692 
747	 0.630550612074428 
748	 0.631908199856344 
749	 0.633901760471295 
750	 0.635407926831438 
751	 0.636273710353922 
752	 0.637066309243797 
753	 0.638606453539196 
754	 0.639659402783857 
755	 0.639966169361274 
756	 0.640848579601427 
757	 0.641413930936981 
758	 0.642421407320836 
759	 0.644034245568793 
760	 0.636203726606158 
761	 0.630446222037813 
762	 0.634080550900165 
763	 0.637005573106792 
764	 0.639903250347155 
765	 0.642777107840991 
766	 0.645333081630439 
767	 0.647447458969558 
768	 0.648525963266731 
769	 0.649728445692496 
770	 0.651399264756205 
771	 0.651719239956554 
772	 0.652057117982268 
773	 0.65257097266131 
774	 0.653050754694306 
775	 0.653715112819352 
776	 0.654776000027249 
777	 0.655556108971678 
778	 0.654856644345661 
779	 0.654774611688344 
780	 0.655066266300245 
781	 0.655621874353501 
782	 0.657359491904421 
783	 0.657424257382174 
784	 0.657290430987186 
785	 0.658659817808192 
786	 0.658572565169808 
787	 0.658151878287118 
788	 0.658210775623854 
789	 0.659072541974413 
790	 0.658946606938044 
791	 0.659189453983798 
792	 0.660273254912678 
793	 0.661223444075607 
794	 0.662071872410945 
795	 0.662435038359168 
796	 0.662196930328362 
797	 0.661964134223538 
798	 0.66270100485749 
799	 0.664108651627076 
800	 0.665229720203188 
801	 0.664663514137101 
802	 0.664252290349474 
803	 0.664706349990072 
804	 0.665607760296348 
805	 0.666369822547488 
806	 0.66766620394728 
807	 0.66891414083245 
808	 0.667598168962605 
809	 0.667432993101978 
810	 0.668141941752378 
811	 0.668603525567502 
812	 0.668589717222733 
813	 0.667613198866077 
814	 0.666141070397796 
815	 0.66526188149799 
816	 0.665028301290233 
817	 0.665122019872348 
818	 0.667038067613308 
819	 0.672216868667924 
820	 0.672464685348405 
821	 0.671832763280515 
822	 0.672062301325997 
823	 0.670538971653873 
824	 0.671522399888409 
825	 0.672749979132951 
826	 0.672583689233583 
827	 0.673428222579574 
828	 0.674353911259491 
829	 0.674826380267913 
830	 0.674881271674597 
831	 0.676310109961451 
832	 0.677873816606509 
833	 0.679113013168248 
834	 0.680036636059446 
835	 0.680196358649443 
836	 0.680290161404404 
837	 0.68049931818116 
838	 0.680524594109056 
839	 0.681616472142759 
840	 0.68345461482369 
841	 0.684955471308984 
842	 0.684288950802461 
843	 0.685311079079215 
844	 0.686375031558919 
845	 0.685966372186135 
846	 0.687113578706442 
847	 0.687182074888825 
848	 0.687462373294389 
849	 0.689618196044998 
850	 0.689317523581941 
851	 0.688857846639078 
852	 0.68868522529771 
853	 0.688050330544516 
854	 0.68851856771191 
855	 0.689514111767095 
856	 0.690772955510594 
857	 0.69242664338699 
858	 0.692448888614887 
859	 0.692422022516994 
860	 0.693271353866194 
861	 0.694116466373354 
862	 0.693653797460907 
863	 0.693929701395446 
864	 0.696017145910861 
865	 0.696786187879125 
866	 0.69612895041569 
867	 0.695784172444453 
868	 0.697232036058056 
869	 0.698786990100231 
870	 0.699059690738785 
871	 0.698634853689661 
872	 0.698887566397635 
873	 0.70012492662137 
874	 0.699817227203128 
875	 0.699508101931975 
876	 0.702276491537832 
877	 0.700684494626084 
878	 0.699902649139123 
879	 0.70128463822092 
880	 0.70159945927525 
881	 0.70174303316845 
882	 0.702019171942829 
883	 0.702441481733889 
884	 0.702703945825516 
885	 0.702734877768342 
886	 0.702304551026508 
887	 0.702085657760874 
888	 0.704222953165185 
889	 0.704987601986472 
890	 0.705655636136705 
891	 0.707244765942636 
892	 0.70663920320731 
893	 0.705659304720009 
894	 0.705024577308626 
895	 0.704368307371243 
896	 0.700238883703452 
897	 0.698044649609249 
898	 0.695960603836512 
899	 0.692225440769017 
900	 0.702108825119796 
901	 0.699084382519407 
902	 0.693670091173756 
903	 0.703235155946471 
904	 0.701459744218544 
905	 0.699824431663048 
906	 0.700083515480018 
907	 0.698694772112064 
908	 0.698876059467229 
909	 0.700457536309622 
910	 0.699982150296824 
911	 0.694224194367351 
912	 0.69651976931112 
913	 0.698444438662759 
914	 0.696921520412857 
915	 0.695348205282604 
916	 0.696371814323998 
917	 0.69847115112056 
918	 0.698918625615552 
919	 0.695962933856102 
920	 0.698012683607111 
921	 0.706016290541324 
922	 0.712813443667952 
923	 0.705759921170665 
924	 0.699580684355476 
925	 0.694399750543493 
926	 0.69243251150568 
927	 0.699949967577645 
928	 0.692589491636181 
929	 0.677477076002544 
930	 0.670225278605759 
931	 0.685160063566092 
932	 0.687043655429334 
933	 0.654123926040184 
934	 0.616144623540054 
935	 0.648308734692302 
936	 0.64242185503139 
937	 0.636718002457282 
938	 0.644648256470806 
939	 0.628911636821242 
940	 0.646376924617578 
941	 0.665068590734555 
942	 0.666565418800447 
943	 0.664866705324006 
944	 0.616937228804227 
945	 0.596888115639245 
946	 0.625607142641839 
947	 0.63502397656653 
948	 0.631094520890243 
949	 0.622845615916145 
950	 0.62463230863209 
951	 0.645516282292508 
952	 0.602112033320103 
953	 0.587262589088626 
954	 0.615979980307855 
955	 0.623673687100527 
956	 0.671335085847934 
957	 0.684720496186117 
958	 0.667930760057645 
959	 0.686945877461071 
960	 0.659336535494429 
961	 0.643564179468278 
962	 0.652487025713905 
963	 0.660956342273078 
964	 0.671309537820248 
965	 0.670466463720251 
966	 0.670146282060166 
967	 0.686378533753326 
968	 0.681638378062585 
969	 0.672485662327 
970	 0.670552491227657 
971	 0.676417398128258 
972	 0.663418973867628 
973	 0.674891847178199 
974	 0.694699646631011 
975	 0.684333509428456 
976	 0.673102240069824 
977	 0.676276441785537 
978	 0.679632484503239 
979	 0.668420021633025 
980	 0.663423993879819 
981	 0.672211799350118 
982	 0.681492746651731 
983	 0.682782154745631 
984	 0.696289115647445 
985	 0.69494909351571 
986	 0.683903076266155 
987	 0.678038019153421 
988	 0.691823973055347 
989	 0.69554274777622 
990	 0.695669802695151 
991	 0.695826021415651 
992	 0.685620977261994 
993	 0.687971618864334 
994	 0.690605456485957 
995	 0.687115935963632 
996	 0.684736735307906 
997	 0.68961595622443 
998	 0.700277262448898 
999	 0.701850529049126 
1000	 0.680779633901599 
1001	 0.688237901772897 
1002	 0.687149210060632 
1003	 0.683021170041937 
1004	 0.683695636959079 
1005	 0.685741658755713 
1006	 0.684091871104514 
1007	 0.687011796694625 
1008	 0.685664650953996 
1009	 0.678085404444802 
1010	 0.667592835610366 
1011	 0.66950798144396 
1012	 0.678143128819936 
1013	 0.67848381914217 
1014	 0.680111462887026 
1015	 0.683981345165991 
1016	 0.682434379621425 
1017	 0.682797122255235 
1018	 0.688233287980557 
1019	 0.689034745439582 
1020	 0.682302836471417 
1021	 0.680135444672793 
1022	 0.680088743359771 
1023	 0.683769757393148 
1024	 0.687304892814889 
1025	 0.699540040671701 
1026	 0.716916046476308 
1027	 0.716990877762254 
1028	 0.710893353357469 
1029	 0.704529076103236 
1030	 0.690281665284669 
1031	 0.679256259523017 
1032	 0.674596786563901 
1033	 0.675228383002348 
1034	 0.676704340537296 
1035	 0.68309162335697 
1036	 0.685622434482176 
1037	 0.690393322466736 
1038	 0.691409963509409 
1039	 0.68367426395094 
1040	 0.686522690624603 
1041	 0.68975200949448 
1042	 0.687699940572691 
1043	 0.691030637015535 
1044	 0.696703895609903 
1045	 0.696143095060449 
1046	 0.693817143924114 
1047	 0.698830297955829 
1048	 0.70467679179068 
1049	 0.708524016102407 
1050	 0.717981264902183 
1051	 0.721038040491382 
1052	 0.719906347743359 
1053	 0.713673886414135 
1054	 0.712808859517529 
1055	 0.710003823745614 
1056	 0.709737154952522 
1057	 0.711586775638322 
1058	 0.705330688852441 
1059	 0.702897634583727 
1060	 0.70347814856032 
1061	 0.700576678745696 
1062	 0.700115048024237 
1063	 0.697586158949583 
1064	 0.696201824923247 
1065	 0.693784739451574 
1066	 0.693912838511236 
1067	 0.69193886725387 
1068	 0.69376533470683 
1069	 0.6975863991535 
1070	 0.697123456867548 
1071	 0.701044712853174 
1072	 0.705923661916774 
1073	 0.708442401839289 
1074	 0.71468208254544 
1075	 0.713984062610607 
1076	 0.709667921716353 
1077	 0.704353987451884 
1078	 0.696375412159885 
1079	 0.692280441969288 
1080	 0.691307396713376 
1081	 0.691757909541411 
1082	 0.688490813262797 
1083	 0.682510631241925 
1084	 0.678527583789486 
1085	 0.674682700133354 
1086	 0.673192385031887 
1087	 0.680470148484241 
1088	 0.687196429803871 
1089	 0.690631162818977 
1090	 0.69462897931695 
1091	 0.694838049090891 
1092	 0.69145463818094 
1093	 0.691098938363053 
1094	 0.699279298740345 
1095	 0.704053982524549 
1096	 0.710355480389042 
1097	 0.71461085692001 
1098	 0.714788573675462 
1099	 0.703016402618412 
1100	 0.694806113483408 
1101	 0.683733944545733 
1102	 0.678308883370734 
1103	 0.681736199847226 
1104	 0.673189697533075 
1105	 0.675382662010952 
1106	 0.681039376720093 
1107	 0.679919155658692 
1108	 0.689849796128666 
1109	 0.703708790900304 
1110	 0.709696036111793 
1111	 0.707103109742342 
1112	 0.705014494079668 
1113	 0.700859998971609 
1114	 0.686737603734474 
1115	 0.646900463568059 
1116	 0.611812664577918 
1117	 0.578671231151753 
1118	 0.500828280780643 
1119	 0.414594259026285 
1120	 0.380149177963454 
1121	 0.335467739353781 
1122	 0.313562840752584 
1123	 0.353143028052546 
1124	 0.298901249143641 
1125	 0.292051758763809 
1126	 0.266472424829562 
1127	 0.283852108937612 
1128	 0.426128049471187 
1129	 0.547016479779797 
1130	 0.658034829627967 
1131	 0.692504596150103 
1132	 0.715945124519212 
1133	 0.662106341236021 
1134	 0.567543525006989 
1135	 0.478316607164523 
1136	 0.439122702206515 
1137	 0.407409173566939 
1138	 0.41115870421476 
1139	 0.459927018901843 
1140	 0.509274688907988 
1141	 0.535815762709237 
1142	 0.544235783066513 
1143	 0.535120776023009 
1144	 0.541174535132126 
1145	 0.540737245429255 
1146	 0.544546988844873 
1147	 0.568012433411721 
1148	 0.577468217339866 
1149	 0.551645328065737 
1150	 0.489837536042865 
1151	 0.52625555799298 
1152	 0.553998402928605 
1153	 0.555273047326005 
1154	 0.589803902907885 
1155	 0.588833303348714 
1156	 0.576381049088212 
1157	 0.600064884301481 
1158	 0.633182988700883 
1159	 0.635821007632996 
1160	 0.626731191796695 
1161	 0.626683222992394 
1162	 0.612697306474535 
1163	 0.608783296158188 
1164	 0.60883995429497 
1165	 0.618886456464513 
1166	 0.633494938136492 
1167	 0.643322389044583 
1168	 0.654128335719256 
1169	 0.659776981558878 
1170	 0.643132339356958 
1171	 0.632437142276376 
1172	 0.633004058135886 
1173	 0.632910501415671 
1174	 0.640840323616661 
1175	 0.655827350724794 
1176	 0.659456564685806 
1177	 0.656657123162569 
1178	 0.653954872259671 
1179	 0.641003260971274 
1180	 0.638965039110923 
1181	 0.643536245276641 
1182	 0.643323563492859 
1183	 0.64733207191914 
1184	 0.647977685180212 
1185	 0.642387680256937 
1186	 0.643661308533029 
1187	 0.636147241697133 
1188	 0.633521437595582 
1189	 0.633867437107527 
1190	 0.626683037717077 
1191	 0.627861272531775 
1192	 0.628354427750391 
1193	 0.63107531482642 
1194	 0.635749427997133 
1195	 0.638074101223947 
1196	 0.643975550611666 
1197	 0.643691138995701 
1198	 0.638575678396632 
1199	 0.635032846267133 
1200	 0.625382125418954 
1201	 0.623615102665098 
1202	 0.627088486137356 
1203	 0.626752419904636 
1204	 0.631473852626205 
1205	 0.639918645757108 
1206	 0.642716280895852 
1207	 0.640469771186013 
1208	 0.63552279535454 
1209	 0.627290391832577 
1210	 0.627469518181517 
1211	 0.632763699208709 
1212	 0.635155288294085 
1213	 0.641967617803506 
1214	 0.644209234638875 
1215	 0.639414179056559 
1216	 0.640189287900705 
1217	 0.644265512615799 
1218	 0.647541229046719 
1219	 0.656586306639874 
1220	 0.657946931241696 
1221	 0.653903919069669 
1222	 0.65068911030449 
1223	 0.647029437817328 
1224	 0.641889364483842 
1225	 0.646216983577588 
1226	 0.64792070479811 
1227	 0.646164668626622 
1228	 0.647499348993482 
1229	 0.649626059980285 
1230	 0.651406618264288 
1231	 0.653306276226064 
1232	 0.65789001409419 
1233	 0.658878399203586 
1234	 0.656138881496921 
1235	 0.657606632470257 
1236	 0.66115156034909 
1237	 0.6642735071166 
1238	 0.671462705829 
1239	 0.673168508917489 
1240	 0.670226357885843 
1241	 0.668194342043598 
1242	 0.667448322754175 
1243	 0.658351590627982 
1244	 0.651636553459574 
1245	 0.653731936720697 
1246	 0.651858287032134 
1247	 0.652702154890259 
1248	 0.653077227080121 
1249	 0.653177279649994 
1250	 0.656342695929591 
1251	 0.663011026401772 
1252	 0.665426255720094 
1253	 0.670892424474513 
1254	 0.669546238475088 
1255	 0.658758025334375 
1256	 0.655470793088754 
1257	 0.652041974567797 
1258	 0.650932936894004 
1259	 0.654236856871664 
1260	 0.656447110554876 
1261	 0.660691316731716 
1262	 0.662810743873127 
1263	 0.662417927475789 
1264	 0.666782214912671 
1265	 0.670459767629505 
1266	 0.670188263942242 
1267	 0.665494528237725 
1268	 0.658943621032429 
1269	 0.655586991419757 
1270	 0.647313155849332 
1271	 0.645021346589903 
1272	 0.650349977112548 
1273	 0.650568863911219 
1274	 0.649385488571886 
1275	 0.648519479426095 
1276	 0.647611862113354 
1277	 0.647341656046814 
1278	 0.645694702027435 
1279	 0.646047709594469 
1280	 0.646454769871894 
1281	 0.648057383360404 
1282	 0.653620959519727 
1283	 0.656288927980061 
1284	 0.657420059057465 
1285	 0.66210257360985 
1286	 0.661642450605295 
1287	 0.6565334681115 
1288	 0.649564187123378 
1289	 0.645864697419865 
1290	 0.644430131077719 
1291	 0.643675120571055 
1292	 0.644349905750537 
1293	 0.648793431431737 
1294	 0.651394459497403 
1295	 0.657259779140796 
1296	 0.656805873404573 
1297	 0.650545849788069 
1298	 0.650525432797971 
1299	 0.647182193709391 
1300	 0.647790296769458 
1301	 0.661327328146155 
1302	 0.663828954986874 
1303	 0.659733794573347 
1304	 0.6561804792028 
1305	 0.643677384132222 
1306	 0.637076026649639 
1307	 0.631006853805619 
1308	 0.630243786418906 
1309	 0.634220248918488 
1310	 0.639845887400863 
1311	 0.638755387030429 
1312	 0.641831479120592 
1313	 0.640604377566883 
1314	 0.633697913602503 
1315	 0.626690219517344 
1316	 0.617779574138313 
1317	 0.611876401335129 
1318	 0.601752311262782 
1319	 0.6011895269081 
1320	 0.610659197916712 
1321	 0.616704504982895 
1322	 0.63073504881825 
1323	 0.634164390626987 
1324	 0.629445183521009 
1325	 0.626144451955287 
1326	 0.614872630986135 
1327	 0.607042444925087 
1328	 0.595521194542442 
1329	 0.595518675557712 
1330	 0.608179638834283 
1331	 0.618483734084563 
1332	 0.655532246723317 
1333	 0.673651791035202 
1334	 0.65711518801274 
1335	 0.613533608615055 
1336	 0.601125400050337 
1337	 0.569457561256858 
1338	 0.578643811015868 
1339	 0.644654210602523 
1340	 0.66668525628337 
1341	 0.686784148021755 
1342	 0.697059456376104 
1343	 0.674574084923369 
1344	 0.673345311300253 
1345	 0.671193554233095 
1346	 0.70336493687546 
1347	 0.782641210211576 
1348	 0.955796015408772 
1349	 1.7944780195016 
1350	 4.2871327072603 
1351	-0.86507962473066 
1352	-0.224796265877041 
1353	-0.431256827887889 
1354	-0.314506770553428 
1355	-1.53317831923114 
1356	-2.98929067924526 
1357	-1.4071696057462 
1358	-1.25846109005051 
1359	-2.30554878362199 
1360	-1.91272754833333 
1361	-1.98236383726451 
1362	-1.90291021632635 
1363	-2.00588500353335 
1364	-3.47491503744454 
1365	-1.56920015885425 
1366	-0.772946719417323 
1367	-0.899868628462972 
1368	-1.37307629762635 
1369	-1.32010595950241 
1370	-0.453751250535203 
1371	-0.686206078513561 
1372	-4.11493341491585 
1373	-2.3180089174691 
1374	 2.24291905160189 
1375	 2.75642805868806 
1376	 1.63459631593493 
1377	 1.54670410279815 
1378	 1.4858260786109 
1379	 0.991422721231907 
1380	 0.683257177462323 
1381	 0.481915963405668 
1382	 0.285802623246214 
1383	 0.252656046370288 
1384	 0.295505045680911 
1385	 0.227596995886828 
1386	-0.178804363749869 
1387	 0.318953784981394 
1388	 0.27275675802828 
1389	 0.471707540003377 
1390	 5.67796487265261 
1391	-0.057962982971862 
1392	 4.51680538710498E-02 
1393	 9.07282186744648E-02 
1394	 0.157245728781952 
1395	 0.698091894017838 
1396	 1.10851398130339 
1397	-1.97558384034229 
1398	-13.453023839927 
1399	-2.2396593916959 
1400	-2.0559790160133 
1401	-1.07572952798846 
1402	-0.92271367935303 
1403	-0.688918983125538 
1404	-0.745250844970449 
1405	-1.44784204383004 
1406	-2.19077926756488 
1407	 3.97530996711439 
1408	 1.44428356795384 
1409	-2.11528311865932 
1410	-2.5137922379318 
1411	-0.498277534023149 
1412	-0.663603444129045 
1413	-0.779190585665928 
1414	-0.737266711646719 
1415	-1.0809057596078 
1416	-1.56864956774967 
1417	 1.90120058932276 
1418	-0.636896857426034 
1419	 8.41028543403103 
1420	 16.6765679718719 
1421	 5.53966354855037 
1422	 1.43433570589839 
1423	 0.631689513147406 
1424	-0.478646042182316 
1425	-0.7011067248865 
1426	-0.644143319067759 
1427	-0.684099962213589 
1428	-0.503407228012493 
1429	-0.478033969608659 
1430	-0.730830904909417 
1431	-0.646489939205874 
1432	-0.700883464286573 
1433	-0.467123593705471 
1434	-6.40381859785494E-02 
1435	-5.43970477665027E-02 
1436	-6.58759003083654E-02 
1437	-8.99529588341426E-02 
1438	-0.562821817885559 
1439	-1.25038007308535 
1440	 3.38109728933574 
1441	 1.52983183826743 
1442	 2.13982738312781 
1443	 8.11632412557068 
1444	-2.58703060463496 
1445	-1.65372141852383 
1446	-1.8848547914186 
1447	-1.61654386288731 
1448	-0.542279543407033 
1449	-0.171344771577871 
1450	-0.260362888879419 
1451	-0.176606908282333 
1452	-0.141597438077472 
1453	-0.109312008597699 
1454	-1.30392438159508E-02 
1455	 0.085009367491428 
1456	 0.185962864192382 
1457	 0.397413908530156 
1458	 0.42486188005955 
1459	 0.369615009699183 
1460	 0.260910854345189 
1461	 4.19684900886492E-02 
1462	 3.76754108332179E-02 
1463	 7.91066715006595E-02 
1464	 9.49454580381057E-02 
1465	 0.213939668095659 
1466	 0.198899427673864 
1467	 1.81848872394529E-02 
1468	-6.3969050663994E-03 
1469	-2.66307351693223E-02 
1470	 3.03915670291217E-02 
1471	 0.340047904186174 
1472	 0.462238970952126 
1473	 0.67800502092748 
1474	 0.618471994312041 
1475	 0.239007510434161 
1476	 0.195612021474178 
1477	 0.196982143682199 
1478	 0.217827021515188 
1479	 0.360075786111761 
1480	 0.37487801260729 
1481	 0.364616448377394 
1482	 0.286943645834182 
1483	 5.64237973141866E-02 
1484	-1.23354379505629E-02 
1485	-2.02963959337116E-02 
1486	 2.32807632479794E-03 
1487	 9.97198482016137E-02 
1488	 0.126353984727793 
1489	 0.114420680940092 
1490	 0.150649417374208 
1491	 0.228919967660766 
1492	 0.230718350006013 
1493	 0.199535475026282 
1494	 0.209759349598278 
1495	 0.201575328669779 
1496	 0.194484838586694 
1497	 0.238256498402191 
1498	 0.238397364769858 
1499	 0.183032690842969 
1500	 0.163611459628158 
1501	 0.164917740346401 
1502	 0.14925688100028 
1503	 0.174050622725894 
1504	 0.191722390438079 
1505	 0.1953537987691 
1506	 0.18989146938213 
1507	 0.192811258470227 
1508	 0.190945578574826 
1509	 0.193381514091041 
1510	 0.204380627134774 
1511	 0.202950443755333 
1512	 0.193088919215222 
1513	 0.192306874250586 
1514	 0.190507814667749 
1515	 0.19077893321425 
1516	 0.195591480936508 
1517	 0.200864294684223 
1518	 0.207352919625077 
1519	 0.209359644969826 
1520	 0.213215592798995 
1521	 0.213238706947911 
1522	 0.202309167836936 
1523	 0.206468714100973 
1524	 0.217788705806763 
1525	 0.226489289762006 
1526	 0.242239454047931 
1527	 0.252836062765531 
1528	 0.258111000717213 
1529	 0.265821301075565 
1530	 0.277815865052431 
1531	 0.282433380924694 
1532	 0.289101009016628 
1533	 0.286267634957917 
1534	 0.274024435560463 
1535	 0.263159811096529 
1536	 0.240645107141932 
1537	 0.229025826091685 
1538	 0.218542554814598 
1539	 0.217770033693903 
1540	 0.232154112380152 
1541	 0.236559396887717 
1542	 0.238357552642964 
1543	 0.244690443324228 
1544	 0.251050283873262 
1545	 0.256218883633753 
1546	 0.269097144863877 
1547	 0.274713717795675 
1548	 0.267930919205778 
1549	 0.269684509710694 
1550	 0.280234585018269 
1551	 0.281029865472724 
1552	 0.278084608538711 
1553	 0.27827723378173 
1554	 0.269241393808845 
1555	 0.26728158462262 
1556	 0.277940883575466 
1557	 0.279961788379393 
1558	 0.273394233598429 
1559	 0.275405628546853 
1560	 0.283850850438484 
1561	 0.285542849052477 
1562	 0.283407203611563 
1563	 0.293995841879982 
1564	 0.290699581387888 
1565	 0.279076587862374 
1566	 0.289576762631236 
1567	 0.293664126100559 
1568	 0.291524233150068 
1569	 0.308746930669899 
1570	 0.322357530760313 
1571	 0.319621495780304 
1572	 0.321654843777197 
1573	 0.323490689161041 
1574	 0.316277448235178 
1575	 0.320951171267852 
1576	 0.337413474943077 
1577	 0.344810819524474 
1578	 0.34910346348152 
1579	 0.356764914717405 
1580	 0.350868569949562 
1581	 0.338348584527417 
1582	 0.328053317957855 
1583	 0.315577872269136 
1584	 0.319439845956001 
1585	 0.324394057857067 
1586	 0.326040996526595 
1587	 0.335056333481904 
1588	 0.335003334154515 
1589	 0.324822989023208 
1590	 0.324588153848139 
1591	 0.327323218332952 
1592	 0.328274957317152 
1593	 0.33079152689139 
1594	 0.332409319442253 
1595	 0.33304120987959 
1596	 0.332273049151336 
1597	 0.330482200294792 
1598	 0.331251475893432 
1599	 0.3321171524817 
1600	 0.333914342531957 
1601	 0.33916494096213 
1602	 0.341888688814438 
1603	 0.342820047459763 
1604	 0.345019892519152 
1605	 0.3473920603614 
1606	 0.34760685607672 
1607	 0.345765183980374 
1608	 0.347290826937696 
1609	 0.350684226215268 
1610	 0.352539096508293 
1611	 0.357677239767208 
1612	 0.356958514646213 
1613	 0.345300410007092 
1614	 0.349391707605084 
1615	 0.363197823553376 
1616	 0.36660992618006 
1617	 0.375953912543817 
1618	 0.374995285831324 
1619	 0.358866421587512 
1620	 0.35624258749165 
1621	 0.357731983290129 
1622	 0.359795052573123 
1623	 0.366684932404111 
1624	 0.369560451273916 
1625	 0.371865171630459 
1626	 0.372578489241401 
1627	 0.371637104345883 
1628	 0.371269660983338 
1629	 0.368522012736408 
1630	 0.368058369616248 
1631	 0.369120305156012 
1632	 0.36949499543174 
1633	 0.373092625874073 
1634	 0.371631324629551 
1635	 0.365480016452295 
1636	 0.364942760678821 
1637	 0.36158339735384 
1638	 0.364729789196575 
1639	 0.377669398640415 
1640	 0.380284078057074 
1641	 0.376534523629086 
1642	 0.383041405362453 
1643	 0.395935850985934 
1644	 0.398287015852884 
1645	 0.404296399747853 
1646	 0.404240369512331 
1647	 0.38649649586812 
1648	 0.382455483603218 
1649	 0.389246666782153 
1650	 0.382927715436832 
1651	 0.37085401540751 
1652	 0.372319511328726 
1653	 0.370869135522304 
1654	 0.382416359597539 
1655	 0.416519500088415 
1656	 0.418348387146838 
1657	 0.410831514648444 
1658	 0.403372170040438 
1659	 0.375108103929723 
1660	 0.371752056769987 
1661	 0.38117343804766 
1662	 0.373577474583864 
1663	 0.388570972378729 
1664	 0.393201013578336 
1665	 0.398781463708288 
1666	 0.411264475973227 
1667	 0.397079976219588 
1668	 0.381677362478769 
1669	 0.373899456369457 
1670	 0.373429923908917 
1671	 0.380935370489452 
1672	 0.380382299746726 
1673	 0.376280975936588 
1674	 0.362554606102143 
1675	 0.352845207710682 
1676	 0.368525386216661 
1677	 0.378332099874682 
1678	 0.384174667647995 
1679	 0.396441847066019 
1680	 0.389585605525194 
1681	 0.382089638587595 
1682	 0.387265691480257 
1683	 0.389396177778973 
1684	 0.387077548377804 
1685	 0.38514142893891 
1686	 0.378164890162636 
1687	 0.363381093550593 
1688	 0.353753948457984 
1689	 0.34879666458971 
1690	 0.359107584153322 
1691	 0.379848134246854 
1692	 0.395231999160814 
1693	 0.410446559519916 
1694	 0.401867181038721 
1695	 0.39346785670068 
1696	 0.389895750443099 
1697	 0.376026494310097 
1698	 0.371593248632852 
1699	 0.362322060202865 
1700	 0.363375032634322 
1701	 0.374047256726167 
1702	 0.390389965760551 
1703	 0.409282626139842 
1704	 0.401917107643869 
1705	 0.383799906977466 
1706	 0.373859089256584 
1707	 0.366584072176364 
1708	 0.35502614129793 
1709	 0.356399154793225 
1710	 0.372139410931524 
1711	 0.360671414712111 
1712	 0.346150914093745 
1713	 0.347382008432256 
1714	 0.317188580817532 
1715	 0.302029612032943 
1716	 0.310934606633077 
1717	 0.312780514842625 
1718	 0.338987617692296 
1719	 0.341281354976741 
1720	 0.34224001592727 
1721	 0.345877748901101 
1722	 0.329936396185475 
1723	 0.32217531653611 
1724	 0.319202773476448 
1725	 0.315938296802708 
1726	 0.316522291607732 
1727	 0.30930962640648 
1728	 0.296360226477335 
1729	 0.28802966476889 
1730	 0.260942282912281 
1731	 0.268580768189467 
1732	 0.323291388356348 
1733	 0.339189453607682 
1734	 0.351882907881892 
1735	 0.351648050390729 
1736	 0.31470436189954 
1737	 0.300237963867521 
1738	 0.290943653341857 
1739	 0.287078553436903 
1740	 0.303049649731065 
1741	 0.311914941118015 
1742	 0.322207234771634 
1743	 0.326897011003528 
1744	 0.31130229072771 
1745	 0.327160071252825 
1746	 0.334024111109159 
1747	 0.316172694777618 
1748	 0.327154313602339 
1749	 0.323317660743938 
1750	 0.304288798515323 
1751	 0.277112031524298 
1752	 0.228563640009655 
1753	 0.22676962030295 
1754	 0.251726961752754 
1755	 0.282405667269032 
1756	 0.356776136590967 
1757	 0.378909766547295 
1758	 0.376448635668416 
1759	 0.421750891953677 
1760	 0.439079266388892 
1761	 0.410890579503605 
1762	 0.394808259531633 
1763	 0.352869388794167 
1764	 0.303191575373423 
1765	 0.323106866029825 
1766	 0.31140736978015 
1767	 0.304782017266256 
1768	 0.347231566514759 
1769	 0.335660794432625 
1770	 0.292921861267796 
1771	 0.270787346264715 
1772	 0.243479121804651 
1773	 0.260664753763112 
1774	 0.312452337878599 
1775	 0.323850303917369 
1776	 0.334321941918318 
1777	 0.226091859469248 
1778	 0.194574365475327 
1779	 0.222577924947418 
1780	 0.159291434626579 
1781	 0.206541863742209 
1782	 0.397595184220898 
1783	 0.508791095188705 
1784	 0.477219109424913 
1785	 0.476277033626711 
1786	 0.397404723758602 
1787	 0.280232196924475 
1788	 0.234771754288961 
1789	 0.179513642368175 
1790	 0.124299844839581 
1791	 0.12130369052213 
1792	 0.16854524072694 
1793	 7.42842819598771E-02 
1794	-6.70569189891365E-02 
1795	-0.254688466034507 
1796	-0.249434005243593 
1797	 0.106152035582565 
1798	 0.691083960184083 
1799	-0.974063752359171 
1800	-0.553639808383347 
1801	 1.48420716361409 
1802	 1.47601449415294 
1803	 1.15946423386887 
1804	 1.04658917083553 
1805	 0.93171200359199 
1806	 0.879034624909579 
1807	 0.877803194743289 
1808	 0.930003769777484 
1809	 1.0627845402059 
1810	 1.45034233233908 
1811	 1.51185499154121 
1812	 1.50948013151875 
1813	 1.50656231402886 
1814	 1.19778433106139 
1815	 1.14402868514658 
1816	 1.25675354614381 
1817	 1.38880221570499 
1818	 1.44052012595449 
1819	 1.5418263504456 
1820	 1.61872786148717 
1821	 1.67945142277485 
1822	 1.56462797412082 
1823	 1.26097512680653 
1824	 1.22990642330951 
1825	 1.38708146197351 
1826	 1.21413785662236 
1827	 1.18626773674829 
1828	 1.31630103750602 
1829	 1.4015010196221 
1830	 1.32368486402553 
1831	 1.38345536119663 
1832	 1.57681928295355 
1833	 1.89749846891714 
1834	 2.79297702954969 
1835	 3.13115377456641 
1836	 3.19400816161965 
1837	 3.45162584999784 
1838	 3.00958399982698 
1839	 1.80783956512963 
1840	 1.52204902496739 
1841	 1.27481553647035 
1842	 1.20906534174377 
1843	 1.6607871529467 
1844	 1.60724764912417 
1845	 1.29605754611765 
1846	 1.06353923454177 
1847	 0.978352969255574 
1848	 0.783087696200829 
1849	 0.752643423586122 
1850	 0.913274417298899 
1851	 1.02817181534813 
1852	 1.22726748972463 
1853	 1.28773000429802 
1854	 1.33361593376445 
1855	 1.35000583021424 
1856	 1.30234824707806 
1857	 1.04612361467043 
1858	 1.01711627380538 
1859	 1.12914577159872 
1860	 1.11357911401192 
1861	 1.08952246794176 
1862	 1.09114288783042 
1863	 1.00450347842038 
1864	 1.00957885304392 
1865	 1.16080225526027 
1866	 1.20229716308565 
1867	 1.2131009582296 
1868	 1.21696048061857 
1869	 1.22101828972262 
1870	 1.10167206932175 
1871	 1.08312578445463 
1872	 1.104909460522 
1873	 1.13895600642258 
1874	 1.19622346730226 
1875	 1.24333937350293 
1876	 1.26091209253299 
1877	 1.38299033961956 
1878	 1.51650770732236 
1879	 1.7972913004807 
1880	 1.88625230810893 
1881	 2.00118469747492 
1882	 1.98939592338858 
1883	 1.73830317043847 
1884	 1.55199900074575 
1885	 1.30067863617817 
1886	 1.20492124738189 
1887	 1.04882265310587 
1888	 1.01800774694861 
1889	 1.06827060576508 
1890	 1.34397250449271 
1891	 1.45278711505264 
1892	 1.59917852017603 
1893	 1.67194283112622 
1894	 1.69484355501818 
1895	 1.65761310822671 
1896	 1.44345317510941 
1897	 1.44735712564238 
1898	 1.59968307990662 
1899	 1.58479465558711 
1900	 1.57696286254734 
1901	 1.63891915211136 
1902	 1.65233560472001 
1903	 1.51301869366314 
1904	 1.48303639275221 
1905	 1.58844527085914 
1906	 1.62822752475604 
1907	 1.77197207163459 
1908	 1.59861392009598 
1909	 1.37482362971114 
1910	 1.15279278561601 
1911	 1.03022670789137 
1912	 0.83468954114714 
1913	 0.88173436846542 
1914	 1.19548063649838 
1915	 1.3606789516516 
1916	 2.11667258241106 
1917	 2.20997253336815 
1918	 1.49884321817586 
1919	 1.30059293759997 
1920	 1.05393123440098 
1921	 0.95255771456794 
1922	 0.93228355612486 
1923	 1.00099762209409 
1924	 1.01827641955055 
1925	 1.10280117994795 
1926	 1.11935326606984 
1927	 1.02444386908749 
1928	 1.09139051933154 
1929	 1.30454724500995 
1930	 1.49958462284405 
1931	 1.97152591389873 
1932	 1.89589905463296 
1933	 1.60880451145437 
1934	 1.40594170420747 
1935	 1.39021863961697 
1936	 1.47045104106764 
1937	 1.57622248110671 
1938	 2.12682448485402 
1939	 2.39030742750147 
1940	 2.38567573506488 
1941	 2.75742098182531 
1942	 3.38821589869286 
1943	 2.15115469294292 
1944	 1.39657059383639 
1945	 1.12361299099885 
1946	 1.00310048073093 
1947	 0.731652071606789 
1948	 0.734085388532887 
1949	 1.05165256910813 
1950	 1.17357524551836 
1951	 1.23928952489014 
1952	 1.32984837909417 
1953	 1.45136657086223 
1954	 1.45546954892463 
1955	 1.11579351961925 
1956	 0.919882389309864 
1957	 0.897743089293711 
1958	 0.650495556977474 
1959	 0.639941477385219 
1960	 0.910165962872219 
1961	 0.944862415887912 
1962	 0.920324942837573 
1963	 0.931516089403178 
1964	 0.87681493742244 
1965	 0.827555168756925 
1966	 0.949108503428908 
1967	 0.758929105215445 
1968	 0.682306949388724 
1969	 0.644286834397621 
1970	 0.660112288974153 
1971	 0.772370369501508 
1972	 0.821794911197613 
1973	 0.907058924120844 
1974	 0.935149998289912 
1975	 0.800545313659709 
1976	 0.780019862958223 
1977	 0.791623501003491 
1978	 0.887120782463911 
1979	 0.973344472976912 
1980	 1.0980703165021 
1981	 1.14685523403685 
1982	 1.09662218629468 
1983	 1.10423079905308 
1984	 1.13552481205144 
1985	 1.20997644730579 
1986	 1.37730396400857 
1987	 1.37577450483088 
1988	 1.35326955277441 
1989	 1.19751241224169 
1990	 1.05709272662909 
1991	 1.09111554626929 
1992	 1.13036379144307 
1993	 1.25216199271953 
1994	 1.20009541887895 
1995	 1.20452556384379 
1996	 1.31208106261982 
1997	 1.64164812592139 
1998	 1.7093757165916 
1999	 1.80342008350084 
2000	 1.6800577191222 
2001	 1.22433352060247 
2002	 1.20632708526355 
2003	 1.30426824285738 
2004	 1.55319758092603 
2005	 2.21412882714414 
2006	 1.76668586917961 
2007	 1.0696556240881 
2008	 0.825196984904315 
2009	 0.805963779693573 
2010	 0.879102840971246 
2011	 1.03317769785142 
2012	 1.91303904353721 
2013	 2.48194219230891 
2014	 3.05289797504961 
2015	 2.88732028561999 
2016	 2.32899460413877 
2017	 2.05280123509533 
2018	 1.64425815811873 
2019	 1.20169413872695 
2020	 0.872418955601489 
2021	 0.489133711953522 
2022	 0.374242079550719 
2023	 0.459816349586424 
2024	 0.475815100433926 
2025	 0.556661713055325 
2026	 0.625417995713827 
2027	 0.711264541672187 
2028	 0.724552568975031 
2029	 0.712227901895269 
2030	 0.699773299204612 
2031	 0.753923630112682 
2032	 0.680759342874059 
2033	 0.603189990899912 
2034	 0.597238156110644 
2035	 0.546129786438343 
2036	 0.51544534115578 
2037	 0.498685537925886 
2038	 0.499927363802393 
2039	 0.515448498170999 
2040	 0.523097509537564 
2041	 0.604537910985357 
2042	 0.78708980502887 
2043	 1.04820687613619 
2044	 1.21427590225153 
2045	 1.3702560336476 
2046	 1.25046843966476 
2047	 1.02006409639336 
2048	 0.977810330573221 
2049	 0.830170957813924 
2050	 0.65871412521634 
2051	 0.578849750297835 
2052	 0.575048453571606 
2053	 0.669158498567467 
2054	 0.678342829587918 
2055	 0.743005788668217 
2056	 0.941486173551168 
2057	 0.747358188284445 
2058	 0.64254641339095 
2059	 0.797473886246948 
2060	 0.937267720282464 
2061	 1.06058358946845 
2062	 1.02241728597475 
2063	 0.974004680204091 
2064	 0.884786857352694 
2065	 0.925021623426558 
2066	 1.10216199786506 
2067	 1.06245016602144 
2068	 0.910673850463258 
2069	 0.861935624070313 
2070	 0.74981212787874 
2071	 0.70517174726417 
2072	 0.774839305262597 
2073	 0.804516688878492 
2074	 0.893028927689097 
2075	 0.948610561032388 
2076	 0.973304765834661 
2077	 0.996588692328213 
2078	 1.02580531050953 
2079	 1.00865801654647 
2080	 0.880988369276577 
2081	 0.814017001926294 
2082	 0.695885729164782 
2083	 0.451684686476108 
2084	 0.397701715993351 
2085	 0.404432817933237 
2086	 0.378122224936984 
2087	 0.422023483661672 
2088	 0.549718158149982 
2089	 0.531029195030533 
2090	 0.539554505228493 
2091	 0.540058426542011 
2092	 0.464653514595474 
2093	 0.501393041416126 
2094	 0.48542808645472 
2095	 0.414242047637302 
2096	 0.402389065709336 
2097	 0.32800090397932 
2098	 0.319121026286696 
2099	 0.361259971378175 
2100	 0.529170254046306 
2101	 0.578363523125231 
2102	 0.629152246895044 
2103	 0.614655455846131 
2104	 0.573827364095891 
2105	 0.615020487740868 
2106	 0.659879971559822 
2107	 0.719606605038005 
2108	 0.777596674202888 
2109	 0.648243119693023 
2110	 0.577849332041753 
2111	 0.574997751554281 
2112	 0.505666066265274 
2113	 0.544556412181465 
2114	 0.575613846566649 
2115	 0.628905253195509 
2116	 0.650224768361991 
2117	 0.693748319716603 
2118	 0.689751035063797 
2119	 0.628466121278914 
2120	 0.618292063455822 
2121	 0.665954565259864 
2122	 0.606427875439238 
2123	 0.512135126684553 
2124	 0.416189708684417 
2125	 0.302753005866923 
2126	 0.244222891628755 
2127	 0.291077974563682 
2128	 0.376575477320124 
2129	 0.397449311393386 
2130	 0.438261351537042 
2131	 0.505173625214752 
2132	 0.447436513717441 
2133	 0.463781373322353 
2134	 0.548547885678867 
2135	 0.632796316509489 
2136	 0.683328029351779 
2137	 0.929251549294552 
2138	 1.08278320926819 
2139	 1.11791127206536 
2140	 1.18048978843675 
2141	 1.02938006733942 
2142	 0.955929236769866 
2143	 0.796241006913489 
2144	 0.64727082285993 
2145	 0.620570338794969 
2146	 0.519846233103039 
2147	 0.472696248251986 
2148	 0.623337060705876 
2149	 0.691114475302338 
2150	 0.728974648444209 
2151	 0.838408279988969 
2152	 0.828529149610757 
2153	 0.649909699605018 
2154	 0.625622856182255 
2155	 0.616991068107326 
2156	 0.644735680914498 
2157	 0.777639171409039 
2158	 0.854500134727707 
2159	 0.843128112801627 
2160	 0.76769839089354 
2161	 0.696095305162954 
2162	 0.716216886113296 
2163	 0.740596830403699 
2164	 0.77566073293767 
2165	 0.685084275909489 
2166	 0.507000903515886 
2167	 0.451364521220388 
2168	 0.465580281040188 
2169	 0.554232639434355 
2170	 0.627203809256477 
2171	 0.681568338921711 
2172	 0.735126639393276 
2173	 0.725717529217185 
2174	 0.655847962870998 
2175	 0.63817874252793 
2176	 0.603664723140012 
2177	 0.557155720417801 
2178	 0.509895251748373 
2179	 0.524399645337439 
2180	 0.612710844653094 
2181	 0.654014696651408 
2182	 0.660555596097487 
2183	 0.701597424918857 
2184	 0.691168209840529 
2185	 0.55635901339088 
2186	 0.590796046494956 
2187	 0.725971212610174 
2188	 0.646804893237409 
2189	 0.737593815633023 
2190	 0.878770206111281 
2191	 0.836656181632566 
2192	 0.904494583291095 
2193	 1.16615652415425 
2194	 1.30046031627327 
2195	 1.36731612710011 
2196	 1.34659413491018 
2197	 1.26141961495653 
2198	 1.22038234237252 
2199	 1.06076938362584 
2200	 1.03048922405954 
2201	 1.14165333599429 
2202	 1.00377376483404 
2203	 0.783978756086448 
2204	 0.751098208594503 
2205	 0.64128487463609 
2206	 0.534149075980715 
2207	 0.540231780113585 
2208	 0.470335566790194 
2209	 0.423372560466551 
2210	 0.438610007853768 
2211	 0.467823791970376 
2212	 0.531578600452605 
2213	 0.577450204257915 
2214	 0.61530949754223 
2215	 0.672431883790884 
2216	 0.682720114761866 
2217	 0.705261985997525 
2218	 0.809904057464215 
2219	 0.809614256938599 
2220	 0.705157375790836 
2221	 0.678914374867331 
2222	 0.654280333583331 
2223	 0.596747516717296 
2224	 0.619020594894611 
2225	 0.73225892185551 
2226	 0.762079983936661 
2227	 0.61586388269101 
2228	 0.48764073626514 
2229	 0.400518411510583 
2230	 0.387692019042997 
2231	 0.439337427103045 
2232	 0.50933891181392 
2233	 0.551972578483787 
2234	 0.525361787553015 
2235	 0.46857893840367 
2236	 0.489620347690456 
2237	 0.523265116543278 
2238	 0.567945387906551 
2239	 0.763806107244489 
2240	 0.853045460298778 
2241	 0.796377910950682 
2242	 0.780937460559528 
2243	 0.634310726997286 
2244	 0.645473647562785 
2245	 0.79266328112522 
2246	 0.873943009565427 
2247	 1.0812306967598 
2248	 1.16294727823582 
2249	 1.06950456576403 
2250	 1.03771188022486 
2251	 1.04398795343921 
2252	 0.850296017209029 
2253	 0.817199268839957 
2254	 0.745942029191918 
2255	 0.584383588332534 
2256	 0.547703185654917 
2257	 0.537898958391069 
2258	 0.493122507566812 
2259	 0.51163559848484 
2260	 0.563935915711077 
2261	 0.57592965353081 
2262	 0.611310099905544 
2263	 0.625077912472581 
2264	 0.634178084585659 
2265	 0.653643154416921 
2266	 0.727165144217109 
2267	 0.832961622139772 
2268	 0.877839932268537 
2269	 0.868063453353804 
2270	 0.815995478298979 
2271	 0.862845222836679 
2272	 1.00610402240149 
2273	 1.08663742949173 
2274	 1.32703117896375 
2275	 1.32537270718369 
2276	 1.03121743514457 
2277	 0.966992312481968 
2278	 0.87193631386619 
2279	 0.87995894430752 
2280	 1.06131261470541 
2281	 1.11584657076413 
2282	 1.33517385146526 
2283	 1.27219333893968 
2284	 1.00882962079012 
2285	 0.704548771816891 
2286	 0.574036618416357 
2287	 0.541333248482738 
2288	 0.569594889542812 
2289	 0.783656314455013 
2290	 0.953765541390624 
2291	 0.976616555143461 
2292	 1.0002776419754 
2293	 0.811691998655562 
2294	 0.679518464828953 
2295	 0.63782837635822 
2296	 0.590737193602245 
2297	 0.548444915051431 
2298	 0.623104779142832 
2299	 0.700449291557422 
2300	 0.803915415298083 
2301	 0.891404694015755 
2302	 0.792752020375471 
2303	 0.686544448837552 
2304	 0.689357573717271 
2305	 0.678852746260165 
2306	 0.627200390551079 
2307	 0.721850101865397 
2308	 0.79800776626805 
2309	 0.835055860982082 
2310	 0.856349343441772 
2311	 0.972970301998397 
2312	 0.895608219461248 
2313	 0.600757111906141 
2314	 0.586957603131737 
2315	 0.652594888453953 
2316	 0.73925172176901 
2317	 1.06507950367841 
2318	 1.11370250954639 
2319	 0.873405972695998 
2320	 0.813462008907514 
2321	 0.769467479292455 
2322	 0.768803356440413 
2323	 0.906014702608314 
2324	 0.939551867381612 
2325	 0.900369169358932 
2326	 0.882879390769013 
2327	 0.770003372907089 
2328	 0.712619596217206 
2329	 0.745896100597907 
2330	 0.742628383305112 
2331	 0.750866438344782 
2332	 0.697647666082721 
2333	 0.602718798211857 
2334	 0.599788312314307 
2335	 0.628553813940666 
2336	 0.560950149794111 
2337	 0.724902207510185 
2338	 0.59618149096619 
2339	 0.334470479727428 
2340	 0.443899839000886 
2341	 0.535039508678241 
2342	 0.605376219003884 
2343	 0.717489600468028 
2344	 0.873223285915776 
2345	 1.06314507699051 
2346	 1.14938166494375 
2347	 1.26641582113894 
2348	 1.17057438574399 
2349	 1.04118697068938 
2350	 1.1687963124959 
2351	 1.28429882597772 
2352	 1.4199218770229 
2353	 1.40182230217377 
2354	 1.52078394795857 
2355	 1.8807662048884 
2356	 1.90280735251138 
2357	 2.03343940559689 
2358	 1.61512784851165 
2359	 0.9050834248119 
2360	 0.667120270602651 
2361	 0.620182257427458 
2362	 0.569638843375813 
2363	 0.766072369738538 
2364	 1.00574167991676 
2365	 1.08055382864277 
2366	 1.49434629423289 
2367	 1.88256204071328 
2368	 2.63411963102786 
2369	 2.13941416699286 
2370	 1.40644232426973 
2371	 1.32040252912659 
2372	 1.13621892253627 
2373	 1.13995316526649 
2374	 1.66979161676215 
2375	 1.57457329508104 
2376	 1.20384299283398 
2377	 1.04442208892659 
2378	 0.775375322291498 
2379	 0.640772408318606 
2380	 0.579270199590255 
2381	 0.575006304107364 
2382	 0.589543139929186 
2383	 0.619496984474454 
2384	 0.752864023559581 
2385	 0.843952972206122 
2386	 1.06977464039808 
2387	 1.21622363204429 
2388	 1.29428593943367 
2389	 1.16097298060887 
2390	 0.201322460199732 
2391	 0.384043553580963 
2392	 1.59025780544897 
2393	 2.22393781752926 
2394	 5.05324175944206 
2395	 3.21371064476505 
2396	 1.52971237362669 
2397	 1.14305315081874 
2398	 0.846525521838113 
2399	 0.787282408037695 
2400	 0.744628193016386 
2401	 0.693397216199744 
2402	 0.710638098384212 
2403	 0.736150754226547 
2404	 0.755549885734455 
2405	 0.740696880154383 
2406	 0.793879591788192 
2407	 0.757880134767487 
2408	 0.511282884604436 
2409	 0.532927785404893 
2410	 0.720547206331146 
2411	 0.801158357526187 
2412	 1.13611885855767 
2413	 1.16211426027362 
2414	 0.892879701194003 
2415	 0.827263353075577 
2416	 0.692378148864681 
2417	 0.663075757860062 
2418	 0.764386645302111 
2419	 0.768064373830443 
2420	 0.803844881417785 
2421	 0.791161190679564 
2422	 0.614443629031878 
2423	 0.733558549613403 
2424	 1.02327640709243 
2425	 1.0843191935778 
2426	 1.26444203170733 
2427	 1.17726227725388 
2428	 0.80288245419577 
2429	 0.807383815271221 
2430	 0.815846354838559 
2431	 0.966445129010617 
2432	 1.93356639669893 
2433	 2.6644726801742 
2434	 8.13806265997208 
2435	 8.23681666680347 
2436	 2.0101249578005 
2437	 1.87026979273793 
2438	 2.07100987788034 
2439	 1.8154773153492 
2440	 1.6166228683867 
2441	 1.67163060062396 
2442	 1.57996152300148 
2443	 1.59665384484206 
2444	 2.32210272769213 
2445	 1.76666011878452 
2446	 0.726880895269816 
2447	 0.494245393269282 
2448	 0.111287463847534 
2449	 0.348555493859008 
2450	 0.628994376742114 
2451	 1.01999317605906 
2452	 1.25766919000069 
2453	 1.58872514249248 
2454	 1.60603207770926 
2455	 1.01185045687122 
2456	 0.879644116516653 
2457	 0.867906083929843 
2458	 0.942067232228084 
2459	 1.39495570788752 
2460	 1.61624081779562 
2461	 1.42336012268306 
2462	 1.46794401012656 
2463	 1.61183071283163 
2464	 1.45174933535168 
2465	 1.28239502923014 
2466	 1.1543405462033 
2467	 0.768112915854239 
2468	 0.660547285665597 
2469	 0.778152781554839 
2470	 0.782773677844832 
2471	 0.754984041589445 
2472	 0.78991878051509 
2473	 0.767275507437886 
2474	 0.895626904813154 
2475	 1.26599532753003 
2476	 1.6890278763524 
2477	 3.35639758020621 
2478	 4.27537510219323 
2479	 5.50296509030854 
2480	 4.07846637793421 
2481	 1.29067050335575 
2482	 1.09586834743663 
2483	 1.43305202059819 
2484	 1.4474836269689 
2485	 1.44660558743064 
2486	 1.80950336374512 
2487	 2.481305562595 
2488	 3.75884599834321 
2489	-11.2876958205588 
2490	-11.5739451468334 
2491	 5.08105950337549 
2492	 2.73415289416879 
2493	 1.33908682114207 
2494	 1.06549368809351 
2495	 1.06896965922847 
2496	 1.06241141014306 
2497	 1.08461460250751 
2498	 1.20562736570836 
2499	 1.63630975359484 
2500	 1.74121257353191 
