Wavelength	000014.asd
350	 5.66493712936818E-02 
351	 5.62178765829766E-02 
352	 5.76337720192041E-02 
353	 0.059341790116038 
354	 5.94148129548869E-02 
355	 5.94723587717883E-02 
356	 5.95320046927545E-02 
357	 5.80354695193345E-02 
358	 5.73306216289129E-02 
359	 5.72945587850197E-02 
360	 5.77357306068582E-02 
361	 5.90136872745079E-02 
362	 5.91393992654579E-02 
363	 5.87760265775138E-02 
364	 5.89383219750692E-02 
365	 5.99903650223995E-02 
366	 6.01196974173525E-02 
367	 5.89792610404739E-02 
368	 5.74314710978881E-02 
369	 5.88276369252525E-02 
370	 5.96611398849624E-02 
371	 5.93007626568006E-02 
372	 5.93470074915835E-02 
373	 5.95716795623123E-02 
374	 5.95412277214308E-02 
375	 5.94273148216915E-02 
376	 6.01376770549952E-02 
377	 5.94629224490363E-02 
378	 5.90177556877823E-02 
379	 5.99409561049917E-02 
380	 6.01155206060913E-02 
381	 6.02402487160732E-02 
382	 6.06457483691116E-02 
383	 6.12889329299028E-02 
384	 6.08732150047273E-02 
385	 6.12789205783555E-02 
386	 6.18933752973005E-02 
387	 6.07639547050278E-02 
388	 6.00717834570798E-02 
389	 6.02839846602403E-02 
390	 6.10610236035383E-02 
391	 6.13777598521448E-02 
392	 6.13392822341521E-02 
393	 0.061297629207749 
394	 6.14375603933564E-02 
395	 6.14408804639274E-02 
396	 6.12763047674963E-02 
397	 6.08040883564656E-02 
398	 6.02648088556077E-02 
399	 6.14274555760651E-02 
400	 6.24506023810178E-02 
401	 6.25163115416652E-02 
402	 0.061762600954512 
403	 6.19015348918957E-02 
404	 6.20940442320307E-02 
405	 6.18803831713752E-02 
406	 6.16530286395223E-02 
407	 6.20595157316957E-02 
408	 6.27706446947897E-02 
409	 6.32197206390787E-02 
410	 0.062831454423408 
411	 6.28721408909307E-02 
412	 0.062998797037899 
413	 0.062501441531438 
414	 6.26733533365181E-02 
415	 6.27763550001214E-02 
416	 6.27177491735856E-02 
417	 6.30253368167638E-02 
418	 6.30449341670177E-02 
419	 6.30051540471457E-02 
420	 6.30549575024072E-02 
421	 6.28967773583711E-02 
422	 0.063299830618326 
423	 6.34855006254646E-02 
424	 6.27759359065674E-02 
425	 6.27861635502761E-02 
426	 6.29465019765635E-02 
427	 6.31758318702735E-02 
428	 6.36470977110181E-02 
429	 6.34774658735726E-02 
430	 6.32182735182329E-02 
431	 6.32300749534615E-02 
432	 6.33570504720067E-02 
433	 6.35003074923109E-02 
434	 6.35012507608673E-02 
435	 6.33793876467328E-02 
436	 6.36836854747136E-02 
437	 6.37577250630903E-02 
438	 6.35960852122156E-02 
439	 6.35260781578701E-02 
440	 6.38233032594652E-02 
441	 6.38638069547418E-02 
442	 6.36059221123779E-02 
443	 6.37044153573332E-02 
444	 6.38130368962549E-02 
445	 0.063971392388361 
446	 6.41498027406383E-02 
447	 6.39266162922234E-02 
448	 6.39019536292329E-02 
449	 6.38430937603463E-02 
450	 6.33784024335912E-02 
451	 6.35570191911537E-02 
452	 6.38672202641433E-02 
453	 6.39970070500887E-02 
454	 6.39743545188754E-02 
455	 6.39881042216329E-02 
456	 6.40975879951245E-02 
457	 0.064240542204486 
458	 6.41151584544025E-02 
459	 6.41337798562919E-02 
460	 6.42122236393609E-02 
461	 0.064107659623168 
462	 6.39333092368431E-02 
463	 6.41101874163839E-02 
464	 6.44362226259495E-02 
465	 6.40968443825469E-02 
466	 6.40187610449837E-02 
467	 6.41731739127025E-02 
468	 6.43793020257273E-02 
469	 6.46247771071904E-02 
470	 6.45820799182079E-02 
471	 0.064433202611426 
472	 6.44970214618137E-02 
473	 6.44290104099624E-02 
474	 6.43040888409438E-02 
475	 6.42756924103369E-02 
476	 6.45259361977022E-02 
477	 6.46414872757486E-02 
478	 6.45049769741298E-02 
479	 6.42507696145545E-02 
480	 6.45148932623141E-02 
481	 0.064445189623817 
482	 6.43522959605935E-02 
483	 6.48532758509113E-02 
484	 6.47488206399001E-02 
485	 0.064720336440378 
486	 6.49302271174488E-02 
487	 0.064727802828353 
488	 6.47953281732657E-02 
489	 6.48037331834383E-02 
490	 6.45046579908571E-02 
491	 6.44725632012577E-02 
492	 6.46017734280236E-02 
493	 6.47128642670242E-02 
494	 0.064653137634372 
495	 6.48956960204269E-02 
496	 6.49013323767845E-02 
497	 0.0646725959179 
498	 6.50272103938756E-02 
499	 6.49379439490672E-02 
500	 6.48501999854011E-02 
501	 6.51928940579497E-02 
502	 6.49365932471085E-02 
503	 6.49521568096479E-02 
504	 6.52392712297024E-02 
505	 6.52828606054462E-02 
506	 0.065281817700937 
507	 0.065057619939838 
508	 6.47675585048446E-02 
509	 6.51504483375726E-02 
510	 6.52854363509167E-02 
511	 6.51925817433159E-02 
512	 6.51250726960365E-02 
513	 0.065043767035279 
514	 6.52031438371372E-02 
515	 6.55122892216645E-02 
516	 6.55943589996196E-02 
517	 0.065244152346478 
518	 6.51715147060939E-02 
519	 6.55791993422461E-02 
520	 6.53823163001803E-02 
521	 6.53469977667372E-02 
522	 6.53784970768694E-02 
523	 6.52068999216301E-02 
524	 6.50782491481579E-02 
525	 6.53043820172241E-02 
526	 6.57606910090914E-02 
527	 6.58962982126898E-02 
528	 6.57072996187879E-02 
529	 6.57483253827539E-02 
530	 6.62173070199843E-02 
531	 6.61856639900547E-02 
532	 6.61077226800465E-02 
533	 0.066143197498581 
534	 6.62582458133324E-02 
535	 6.59707879833686E-02 
536	 6.58774698808095E-02 
537	 0.066087701057217 
538	 6.59553134644465E-02 
539	 6.61979363737675E-02 
540	 6.65161055443517E-02 
541	 6.65034907698273E-02 
542	 6.63893912256784E-02 
543	 6.63925752445809E-02 
544	 6.65421676979662E-02 
545	 6.67172341279785E-02 
546	 6.67118607815215E-02 
547	 6.66580383045402E-02 
548	 6.66429184228692E-02 
549	 6.65510840518883E-02 
550	 6.67906293504499E-02 
551	 6.70866567987446E-02 
552	 6.70555572760937E-02 
553	 6.70171660719782E-02 
554	 6.72184168840035E-02 
555	 6.75163734370482E-02 
556	 6.74267402911352E-02 
557	 6.73790297499908E-02 
558	 6.73159180402546E-02 
559	 6.72393776277362E-02 
560	 6.76012081211949E-02 
561	 6.78518190905149E-02 
562	 6.79429238082415E-02 
563	 6.80518937633091E-02 
564	 6.80149976517406E-02 
565	 6.81856457713284E-02 
566	 6.85040017924325E-02 
567	 6.82414071221718E-02 
568	 6.82744757613605E-02 
569	 6.84623246476153E-02 
570	 6.84751488982111E-02 
571	 0.068505871105927 
572	 6.86326369897388E-02 
573	 6.88164734135427E-02 
574	 6.89364665019258E-02 
575	 0.069025642169204 
576	 6.91573795689923E-02 
577	 6.92874639706304E-02 
578	 6.90592343378024E-02 
579	 6.90558891494187E-02 
580	 6.92202334971792E-02 
581	 6.93118069427745E-02 
582	 6.97072226984604E-02 
583	 6.98384906988901E-02 
584	 6.96431579715916E-02 
585	 6.97023803372459E-02 
586	 6.96648461690292E-02 
587	 6.97442683150876E-02 
588	 7.00523158094472E-02 
589	 6.97389427107606E-02 
590	 6.95984727048683E-02 
591	 6.98165625463131E-02 
592	 7.00813547569548E-02 
593	 7.01348298104219E-02 
594	 7.00040859958174E-02 
595	 6.98822203818142E-02 
596	 7.01919135487456E-02 
597	 7.02991090946265E-02 
598	 7.03470549524582E-02 
599	 7.05382450039394E-02 
600	 7.01721114798289E-02 
601	 7.00480414245805E-02 
602	 7.02659271798044E-02 
603	 7.02696911830773E-02 
604	 7.03512819700191E-02 
605	 7.03712434415295E-02 
606	 7.02459949555331E-02 
607	 7.02049189572726E-02 
608	 7.02810538821087E-02 
609	 7.04501578960982E-02 
610	 7.06009553085375E-02 
611	 7.02879885297048E-02 
612	 7.02525769659159E-02 
613	 0.070568426041361 
614	 7.02173543486894E-02 
615	 7.03331706896971E-02 
616	 7.05218894743014E-02 
617	 7.02498973212258E-02 
618	 7.01266891242327E-02 
619	 7.02900345706662E-02 
620	 7.05339815752815E-02 
621	 7.04468810834454E-02 
622	 7.04832685986553E-02 
623	 7.03395267819693E-02 
624	 6.99948008073405E-02 
625	 7.03549746927209E-02 
626	 7.05231448288554E-02 
627	 7.05732665265065E-02 
628	 7.08297544881013E-02 
629	 7.05948254251358E-02 
630	 7.04286180981755E-02 
631	 0.070408935921481 
632	 7.00129406030509E-02 
633	 7.02072666877842E-02 
634	 7.05516129127578E-02 
635	 0.070534017344663 
636	 7.03941900353216E-02 
637	 0.07033974516249 
638	 0.070400582975926 
639	 7.04925016011043E-02 
640	 7.06079630684558E-02 
641	 7.06841934601434E-02 
642	 7.06362005719214E-02 
643	 7.03296293592269E-02 
644	 7.04640813569715E-02 
645	 7.06678984048393E-02 
646	 7.04416550916103E-02 
647	 7.05422720386252E-02 
648	 7.05820968706472E-02 
649	 7.04957127328975E-02 
650	 7.05341858517896E-02 
651	 7.03791610355811E-02 
652	 7.05279828067995E-02 
653	 7.10485855794468E-02 
654	 7.07001810273371E-02 
655	 7.06456760333547E-02 
656	 0.070747055885312 
657	 7.04318120728321E-02 
658	 7.05366743270494E-02 
659	 7.05156792404203E-02 
660	 7.03639097939465E-02 
661	 7.07004539544123E-02 
662	 7.07611619874945E-02 
663	 7.05956788038493E-02 
664	 0.070431034065678 
665	 7.04136939459672E-02 
666	 7.05223197255215E-02 
667	 7.07189790782866E-02 
668	 7.09198784331844E-02 
669	 7.07852579862577E-02 
670	 7.07650341778599E-02 
671	 7.09845341202256E-02 
672	 7.08981818913472E-02 
673	 7.07347993687095E-02 
674	 0.070460300051601 
675	 7.01535770653518E-02 
676	 7.07160625987665E-02 
677	 7.08146305875085E-02 
678	 7.03738220883088E-02 
679	 7.03463410494154E-02 
680	 7.04919842741089E-02 
681	 7.06255165453831E-02 
682	 7.06258872192704E-02 
683	 7.04889013611856E-02 
684	 7.05072031845749E-02 
685	 7.05191924696314E-02 
686	 7.02943709747125E-02 
687	 7.05715719170955E-02 
688	 7.06160584340299E-02 
689	 7.02792458900621E-02 
690	 0.070201722196252 
691	 7.06826768711814E-02 
692	 7.08587061277575E-02 
693	 7.03360665817893E-02 
694	 7.07999630715682E-02 
695	 7.11285367669264E-02 
696	 7.09611335864109E-02 
697	 7.04508508940207E-02 
698	 7.02666349887974E-02 
699	 7.01420052995839E-02 
700	 7.01556646511824E-02 
701	 7.08750971858609E-02 
702	 7.05639727248794E-02 
703	 7.01952326017262E-02 
704	 7.05660257885843E-02 
705	 7.02064240939617E-02 
706	 7.03163417777901E-02 
707	 7.07033578412857E-02 
708	 7.05711418908947E-02 
709	 7.07202738789924E-02 
710	 7.06318361145763E-02 
711	 7.01772317946023E-02 
712	 6.99094114643348E-02 
713	 6.99365130547846E-02 
714	 7.00359572203211E-02 
715	 0.070005875823292 
716	 0.070176748417442 
717	 7.03898829509781E-02 
718	 7.05123952656147E-02 
719	 7.04804849846838E-02 
720	 7.04030244219758E-02 
721	 7.02939422753995E-02 
722	 7.00740088086356E-02 
723	 6.94961374165003E-02 
724	 6.90933385310415E-02 
725	 6.90206303925587E-02 
726	 6.91829155404748E-02 
727	 6.94122955580557E-02 
728	 6.96347217113878E-02 
729	 6.97509692366294E-02 
730	 6.96837946515396E-02 
731	 6.96584121644738E-02 
732	 6.97197780001998E-02 
733	 6.96850817569944E-02 
734	 6.91178677408625E-02 
735	 6.92777128826065E-02 
736	 6.95886164184303E-02 
737	 6.93381012964921E-02 
738	 0.069198479665288 
739	 6.92490496865817E-02 
740	 6.92658952877504E-02 
741	 6.89496276989272E-02 
742	 6.89291262164188E-02 
743	 6.91085877141307E-02 
744	 6.92486958999286E-02 
745	 6.90238260030514E-02 
746	 6.90871316307207E-02 
747	 6.91881772311172E-02 
748	 6.90275220485786E-02 
749	 6.90001885135475E-02 
750	 6.89932984517439E-02 
751	 6.89995903712358E-02 
752	 6.90386433235382E-02 
753	 6.87734418997492E-02 
754	 6.88065890791866E-02 
755	 6.91144249157217E-02 
756	 6.87227657030276E-02 
757	 6.86888917527824E-02 
758	 6.86792732445013E-02 
759	 0.0681646849358 
760	 6.79570995081355E-02 
761	 6.90911169949922E-02 
762	 7.00625391333366E-02 
763	 6.89808069024708E-02 
764	 6.87715062199191E-02 
765	 6.90574744802934E-02 
766	 6.93500762519515E-02 
767	 6.93880864850919E-02 
768	 6.88950547111078E-02 
769	 6.83771872196456E-02 
770	 6.82215094434192E-02 
771	 6.84441159450589E-02 
772	 6.86076967796746E-02 
773	 0.068668391177056 
774	 6.87376083059487E-02 
775	 6.88368857824593E-02 
776	 6.89734039550288E-02 
777	 6.89657215748639E-02 
778	 0.068559545858117 
779	 6.86707216739187E-02 
780	 6.89086819783415E-02 
781	 6.89633406876225E-02 
782	 6.90753211213155E-02 
783	 6.87639995559325E-02 
784	 6.84007762293228E-02 
785	 6.84638429252182E-02 
786	 6.87922761998158E-02 
787	 6.90124286960008E-02 
788	 6.88684875028936E-02 
789	 6.83309628534201E-02 
790	 0.068216330527788 
791	 6.85922280707987E-02 
792	 6.89836755669804E-02 
793	 6.85055029045784E-02 
794	 6.85122634116821E-02 
795	 6.87604968235786E-02 
796	 6.87878250661265E-02 
797	 0.068391377873626 
798	 6.84386943403188E-02 
799	 6.85488065319547E-02 
800	 0.068169602500211 
801	 6.84555844011148E-02 
802	 6.86076260409446E-02 
803	 6.84241768602985E-02 
804	 6.82699677411199E-02 
805	 6.85587235052704E-02 
806	 6.84086469231337E-02 
807	 6.78196548590933E-02 
808	 6.81684210265902E-02 
809	 6.85517866671415E-02 
810	 6.86304214139214E-02 
811	 0.068386792731694 
812	 6.84633200992609E-02 
813	 0.068223022118481 
814	 0.068152973362905 
815	 6.90049838123613E-02 
816	 6.89621386783144E-02 
817	 6.83074635812789E-02 
818	 6.78628567206938E-02 
819	 6.83148646523216E-02 
820	 6.81854272458356E-02 
821	 6.80658378584214E-02 
822	 6.81786322597493E-02 
823	 0.068021664922946 
824	 6.80083189339308E-02 
825	 6.84730938806021E-02 
826	 6.92202788640885E-02 
827	 0.06902380677537 
828	 6.86316122004145E-02 
829	 6.84422869623972E-02 
830	 6.85785747848804E-02 
831	 6.84715631516324E-02 
832	 6.85237911348678E-02 
833	 0.068675788230745 
834	 6.85517328982991E-02 
835	 6.74440303107722E-02 
836	 0.067681358104747 
837	 6.88217548151448E-02 
838	 6.79841767510911E-02 
839	 6.84898573538697E-02 
840	 0.068753114290651 
841	 6.80904950926222E-02 
842	 6.84881963029507E-02 
843	 6.88719763714098E-02 
844	 6.87049246029384E-02 
845	 6.81086950626977E-02 
846	 6.87068582804171E-02 
847	 6.86221236765599E-02 
848	 0.068156523763284 
849	 6.81886952189318E-02 
850	 6.78032965336045E-02 
851	 6.76551388367568E-02 
852	 6.78117540293132E-02 
853	 6.79347849199796E-02 
854	 6.82912835667005E-02 
855	 6.82509492035751E-02 
856	 6.79712630304879E-02 
857	 6.82925602214856E-02 
858	 0.067784359228957 
859	 0.067495739878134 
860	 6.78088443229246E-02 
861	 6.75974257470301E-02 
862	 6.78172153581167E-02 
863	 6.82388110975283E-02 
864	 6.83233887727017E-02 
865	 6.73703403658481E-02 
866	 6.78539883314094E-02 
867	 6.84111953617959E-02 
868	 6.76021124383861E-02 
869	 6.85794267257104E-02 
870	 6.88804179604215E-02 
871	 6.82351397486446E-02 
872	 6.75286711670939E-02 
873	 6.78234682813113E-02 
874	 6.81977014451542E-02 
875	 6.83957312832552E-02 
876	 0.068557049064478 
877	 6.75444947952461E-02 
878	 6.74470945882861E-02 
879	 6.85279834183251E-02 
880	 6.90258050185321E-02 
881	 6.83537701248215E-02 
882	 6.73433465092969E-02 
883	 6.69261697864554E-02 
884	 6.76550419986435E-02 
885	 6.72979404168764E-02 
886	 6.71262746591601E-02 
887	 6.76908593666245E-02 
888	 6.71169235835666E-02 
889	 6.75024551884374E-02 
890	 6.79347279847904E-02 
891	 6.75158014211799E-02 
892	 6.73401354176769E-02 
893	 6.74498044579407E-02 
894	 6.77310757365836E-02 
895	 0.067953131083611 
896	 6.77739204986589E-02 
897	 0.069223464410453 
898	 7.04268214676923E-02 
899	 6.90003585679091E-02 
900	 6.94373126887009E-02 
901	 6.87624349432882E-02 
902	 6.80549372656131E-02 
903	 6.88204305096229E-02 
904	 6.61884486282375E-02 
905	 6.62872999909754E-02 
906	 6.82258268970277E-02 
907	 6.77586591442691E-02 
908	 0.067645863842337 
909	 6.85889587120403E-02 
910	 6.90728861653661E-02 
911	 6.67415773056342E-02 
912	 6.52427503966693E-02 
913	 6.52596179081329E-02 
914	 6.56529140993191E-02 
915	 6.49453314392631E-02 
916	 6.92508675406657E-02 
917	 6.99284130374315E-02 
918	 6.67944760580909E-02 
919	 6.68989817940146E-02 
920	 6.94502856158827E-02 
921	 6.95258145283529E-02 
922	 6.74020927954901E-02 
923	 6.80628329733136E-02 
924	 6.66274429940316E-02 
925	 0.064235716107425 
926	 6.52148848172758E-02 
927	 7.58177204381216E-02 
928	 7.41544414197267E-02 
929	 6.59330936209502E-02 
930	 6.20354333888075E-02 
931	 6.92641540383082E-02 
932	 6.58300876429907E-02 
933	 6.98005591613065E-02 
934	 8.06020388446334E-02 
935	 4.19928203123151E-02 
936	 3.34936099761713E-02 
937	 0.048716361208128 
938	 6.21545855498458E-02 
939	 5.68577909414993E-02 
940	 6.70325502336034E-02 
941	 7.17484891953902E-02 
942	 6.51015749994604E-02 
943	 6.62651507042794E-02 
944	 8.16006505841576E-02 
945	 7.45096828189541E-02 
946	 5.14352001116761E-02 
947	 7.69491214539027E-02 
948	 7.42824736790683E-02 
949	 0.064308580607127 
950	 5.88657883025018E-02 
951	 4.74197266772905E-02 
952	 5.88285239985715E-02 
953	 0.065596320688279 
954	 6.26897352481861E-02 
955	 7.07006139817702E-02 
956	 6.56308772641557E-02 
957	 0.065662868430085 
958	 6.73552578965997E-02 
959	 0.052511028696842 
960	 5.50432042041989E-02 
961	 6.55903091175995E-02 
962	 7.10663621901654E-02 
963	 6.48359882908632E-02 
964	 6.94082926672473E-02 
965	 7.33493865803486E-02 
966	 7.15953076603518E-02 
967	 6.63611860710932E-02 
968	 6.73722408401197E-02 
969	 6.99191508476803E-02 
970	 6.85387888708535E-02 
971	 6.12332806341989E-02 
972	 5.94073736450227E-02 
973	 6.39762890812743E-02 
974	 6.96989187306916E-02 
975	 6.97487111001053E-02 
976	 6.52753533301285E-02 
977	 6.75469774565744E-02 
978	 0.069412993781249 
979	 6.26797567557165E-02 
980	 6.11487400498012E-02 
981	 6.34495916299549E-02 
982	 6.55353876587229E-02 
983	 6.53896545724014E-02 
984	 6.77739617810789E-02 
985	 7.16853146842063E-02 
986	 7.09792211196075E-02 
987	 6.57516843270979E-02 
988	 6.86701969274509E-02 
989	 6.47066386196225E-02 
990	 6.03911946243224E-02 
991	 6.25168968070974E-02 
992	 6.99970670941746E-02 
993	 6.86518547896565E-02 
994	 6.64730628291102E-02 
995	 0.066074441643628 
996	 0.061884501243737 
997	 6.76460667012136E-02 
998	 6.71570663030193E-02 
999	 0.060979383762419 
1000	 6.25291163632751E-02 
1001	 0.069659096427891 
1002	 6.98203005308621E-02 
1003	 6.78779690641295E-02 
1004	 6.75009906083036E-02 
1005	 7.01913255353844E-02 
1006	 7.00071392496672E-02 
1007	 6.70567339759131E-02 
1008	 6.61524235652105E-02 
1009	 6.54091775286443E-02 
1010	 6.57050202319668E-02 
1011	 6.55301374125292E-02 
1012	 6.52061244397314E-02 
1013	 6.60441706549623E-02 
1014	 6.74644991998123E-02 
1015	 0.069337938463166 
1016	 7.01469113143826E-02 
1017	 7.11543271231851E-02 
1018	 7.15267243383129E-02 
1019	 7.20887942454424E-02 
1020	 7.38603414107348E-02 
1021	 7.40532088870674E-02 
1022	 7.28707874501701E-02 
1023	 7.15771260505973E-02 
1024	 6.94695017496981E-02 
1025	 6.71486669073589E-02 
1026	 6.51082814047492E-02 
1027	 6.58497976749616E-02 
1028	 6.69286079114333E-02 
1029	 6.90880544805991E-02 
1030	 7.09539175178423E-02 
1031	 6.95299173433391E-02 
1032	 6.92165036793852E-02 
1033	 6.77920046142409E-02 
1034	 6.71185580740415E-02 
1035	 6.70304731323405E-02 
1036	 6.79989209425243E-02 
1037	 6.98109478602113E-02 
1038	 7.07414109180981E-02 
1039	 7.14600364927307E-02 
1040	 7.10765675568178E-02 
1041	 6.94983034837227E-02 
1042	 0.067750783319798 
1043	 6.87594747360434E-02 
1044	 0.069223827274314 
1045	 0.068419219115267 
1046	 6.88493979117565E-02 
1047	 6.83542049446128E-02 
1048	 6.94184874956715E-02 
1049	 7.05927055352497E-02 
1050	 7.34841214519256E-02 
1051	 7.49789558070776E-02 
1052	 0.077100739047198 
1053	 7.55922462197908E-02 
1054	 7.43286256128344E-02 
1055	 7.45921776891848E-02 
1056	 7.28747620017948E-02 
1057	 0.072001036947649 
1058	 7.16951846549783E-02 
1059	 6.96139357707601E-02 
1060	 6.86815343064215E-02 
1061	 6.94304804216228E-02 
1062	 6.85749350242114E-02 
1063	 6.72971098251359E-02 
1064	 6.62188652172618E-02 
1065	 6.41593148517711E-02 
1066	 6.24053911655013E-02 
1067	 6.41013839341028E-02 
1068	 6.57318455930624E-02 
1069	 6.80530986515688E-02 
1070	 7.17326203625533E-02 
1071	 7.40604703673989E-02 
1072	 7.55131655721081E-02 
1073	 7.43136542416244E-02 
1074	 7.28672848213227E-02 
1075	 7.14446310956414E-02 
1076	 7.06751627604607E-02 
1077	 0.071673361520169 
1078	 7.12211438870129E-02 
1079	 7.01773097332636E-02 
1080	 6.78607210362412E-02 
1081	 6.48851437711117E-02 
1082	 6.37081886187373E-02 
1083	 6.42455482425435E-02 
1084	 6.48158291457218E-02 
1085	 6.57127327998207E-02 
1086	 6.68513735587424E-02 
1087	 6.67736969175756E-02 
1088	 6.74443878404157E-02 
1089	 6.74353592163466E-02 
1090	 6.57314692033349E-02 
1091	 6.69323350113622E-02 
1092	 6.52918156333079E-02 
1093	 0.063759039207243 
1094	 6.52592451717736E-02 
1095	 6.59718764098241E-02 
1096	 0.065375595710323 
1097	 6.73305073198673E-02 
1098	 6.90638954724418E-02 
1099	 6.86449092259579E-02 
1100	 6.81635542429424E-02 
1101	 6.71778815546836E-02 
1102	 6.71217325644594E-02 
1103	 6.85701196016385E-02 
1104	 7.03262667571608E-02 
1105	 6.80854170969587E-02 
1106	 0.066092098926489 
1107	 6.86166585994621E-02 
1108	 6.99290932249173E-02 
1109	 7.20152555112805E-02 
1110	 0.073877058641654 
1111	 7.63993470764917E-02 
1112	 7.58165952015728E-02 
1113	 0.07064893236767 
1114	 7.19101327229568E-02 
1115	 7.04184728665457E-02 
1116	 6.55599214053004E-02 
1117	 6.84648091965114E-02 
1118	 7.13041869654403E-02 
1119	 7.20236934331107E-02 
1120	 7.95657787139349E-02 
1121	 0.10431648007045 
1122	 0.126337070396511 
1123	 0.142672616267368 
1124	 0.17399404522624 
1125	 0.24898325107 
1126	 0.299085394234754 
1127	 0.287497565497221 
1128	 0.23320860750233 
1129	 0.194940514413167 
1130	 0.097548328192674 
1131	 6.09278832500941E-02 
1132	 5.78382356247302E-02 
1133	 6.95414093169426E-02 
1134	 0.112469861419755 
1135	 0.105941744686256 
1136	 0.102196195978492 
1137	 0.124388257964643 
1138	 0.114731255793677 
1139	 9.71480223032713E-02 
1140	 9.94675803546866E-02 
1141	 0.118506048706267 
1142	 0.125875694124715 
1143	 0.136893418654267 
1144	 0.144718078405351 
1145	 0.147569171989392 
1146	 0.14046061358545 
1147	 0.128240667884564 
1148	 0.121246505426556 
1149	 0.103997399445477 
1150	 9.16629552837695E-02 
1151	 8.69012841555845E-02 
1152	 8.15783153591138E-02 
1153	 8.01137999033173E-02 
1154	 7.48178560119542E-02 
1155	 7.01065844796158E-02 
1156	 6.86800789229774E-02 
1157	 6.69610694690302E-02 
1158	 6.96496128311641E-02 
1159	 6.93835654444367E-02 
1160	 6.84751615520535E-02 
1161	 6.93790831414336E-02 
1162	 6.80345918205493E-02 
1163	 6.94533543057866E-02 
1164	 7.39744700676437E-02 
1165	 0.075658811016809 
1166	 0.076156383001512 
1167	 7.76743824697926E-02 
1168	 7.32268998189616E-02 
1169	 7.21648649842043E-02 
1170	 7.18454337989514E-02 
1171	 6.89626955159658E-02 
1172	 6.91792543613273E-02 
1173	 6.70767801932026E-02 
1174	 6.56865889268042E-02 
1175	 6.85573157217481E-02 
1176	 7.00047895899828E-02 
1177	 7.20749166875931E-02 
1178	 7.48725464926276E-02 
1179	 7.81064369772156E-02 
1180	 8.03809051624039E-02 
1181	 8.42496017947832E-02 
1182	 8.59877990856182E-02 
1183	 8.64253246783702E-02 
1184	 8.61111397039197E-02 
1185	 8.38851990564016E-02 
1186	 8.29102713737058E-02 
1187	 8.17428372853374E-02 
1188	 7.85291577495465E-02 
1189	 7.48312213751595E-02 
1190	 7.05888432936529E-02 
1191	 6.62461677479704E-02 
1192	 6.66142970207813E-02 
1193	 6.72826998049378E-02 
1194	 7.12166075873917E-02 
1195	 7.26721094032025E-02 
1196	 7.37287091520945E-02 
1197	 7.39536847575318E-02 
1198	 7.32114417632999E-02 
1199	 7.30869424561509E-02 
1200	 7.37847893940938E-02 
1201	 0.073952502779351 
1202	 7.32433942969939E-02 
1203	 7.34612994039362E-02 
1204	 7.45135453620883E-02 
1205	 7.23883946756622E-02 
1206	 7.06453375652212E-02 
1207	 6.77773968715945E-02 
1208	 6.42265638384559E-02 
1209	 6.26382273201409E-02 
1210	 6.28221369460461E-02 
1211	 6.49689251602493E-02 
1212	 0.067661906634899 
1213	 7.39408760412345E-02 
1214	 7.55865418521815E-02 
1215	 7.62197862633842E-02 
1216	 7.55414333027271E-02 
1217	 7.07339303871695E-02 
1218	 6.85946906313939E-02 
1219	 6.74031838854295E-02 
1220	 6.65764534879752E-02 
1221	 6.56057251123316E-02 
1222	 0.066351175037904 
1223	 6.83656751059039E-02 
1224	 6.97845854656617E-02 
1225	 7.13858457054819E-02 
1226	 7.12948845282303E-02 
1227	 7.14822076880673E-02 
1228	 7.15163384074459E-02 
1229	 7.14562891497726E-02 
1230	 7.24826917616595E-02 
1231	 7.24769680204043E-02 
1232	 0.070686865113486 
1233	 7.06634239850135E-02 
1234	 7.14797134321755E-02 
1235	 0.072024496343813 
1236	 7.33288175718549E-02 
1237	 7.39890470919792E-02 
1238	 0.074079316358163 
1239	 7.42907201774841E-02 
1240	 7.53042348911813E-02 
1241	 7.48707092308577E-02 
1242	 7.30191936773688E-02 
1243	 7.20797770964305E-02 
1244	 7.13661386805341E-02 
1245	 7.09623863002727E-02 
1246	 7.26696266516419E-02 
1247	 7.52543742647839E-02 
1248	 7.53664569579035E-02 
1249	 7.37905515622206E-02 
1250	 7.31182911906553E-02 
1251	 7.10715282606642E-02 
1252	 7.05781208044542E-02 
1253	 7.15466441401164E-02 
1254	 7.19480079513924E-02 
1255	 7.31713043350532E-02 
1256	 7.29045623282396E-02 
1257	 7.11841566253758E-02 
1258	 7.07735989250648E-02 
1259	 6.98564046391766E-02 
1260	 6.96556398584365E-02 
1261	 7.16443873019212E-02 
1262	 7.20097576028368E-02 
1263	 7.12994555178181E-02 
1264	 7.07168910461718E-02 
1265	 7.04372019924381E-02 
1266	 6.97784102990599E-02 
1267	 7.12651659203494E-02 
1268	 7.19555484343557E-02 
1269	 7.20835484085503E-02 
1270	 7.15392450832745E-02 
1271	 7.15309047386656E-02 
1272	 7.08399306740897E-02 
1273	 0.071696167141842 
1274	 7.44572772156071E-02 
1275	 0.075031626991837 
1276	 0.075345043470373 
1277	 7.47801585933629E-02 
1278	 0.071804320356894 
1279	 0.070996762142113 
1280	 7.08059432191264E-02 
1281	 7.13023538963399E-02 
1282	 7.38899296533677E-02 
1283	 7.46477973383885E-02 
1284	 7.46385077751931E-02 
1285	 7.49011864012809E-02 
1286	 7.53518171468841E-02 
1287	 0.073783816882655 
1288	 7.31004319927756E-02 
1289	 7.27692268922099E-02 
1290	 7.08041588836537E-02 
1291	 6.69895053188426E-02 
1292	 6.49309730572104E-02 
1293	 6.17081633666118E-02 
1294	 6.11661530935818E-02 
1295	 0.063633399916539 
1296	 0.063953637063214 
1297	 6.46699772062267E-02 
1298	 6.51007763461647E-02 
1299	 6.42373411748559E-02 
1300	 6.37408802039569E-02 
1301	 6.32100452663581E-02 
1302	 6.41136607442342E-02 
1303	 6.51252033261007E-02 
1304	 6.69473263926622E-02 
1305	 7.22579626300708E-02 
1306	 7.50582344783825E-02 
1307	 0.07718669810224 
1308	 7.82012009340515E-02 
1309	 7.65545234440688E-02 
1310	 7.68163587540053E-02 
1311	 0.076757302429395 
1312	 7.50208570061459E-02 
1313	 7.45071043951308E-02 
1314	 7.48853580397911E-02 
1315	 7.31218459906868E-02 
1316	 6.97184320349186E-02 
1317	 6.90584349875607E-02 
1318	 6.82187825069837E-02 
1319	 6.86740601163766E-02 
1320	 7.27154568045275E-02 
1321	 0.073998817114271 
1322	 7.49314840117228E-02 
1323	 7.43403511913769E-02 
1324	 7.08857584327101E-02 
1325	 6.99691315339295E-02 
1326	 6.93246770270696E-02 
1327	 6.75733980742299E-02 
1328	 6.68164465061459E-02 
1329	 6.58826411140199E-02 
1330	 5.98140927769211E-02 
1331	 5.81946656690701E-02 
1332	 6.14845505036162E-02 
1333	 6.88747173405451E-02 
1334	 6.73073139110816E-02 
1335	 7.04658381427867E-02 
1336	 6.99032924845269E-02 
1337	 6.06472598474908E-02 
1338	 0.061763255745214 
1339	 7.02766413562802E-02 
1340	 7.22947793897873E-02 
1341	 7.52391184141372E-02 
1342	 7.89283994691342E-02 
1343	 8.29920266020807E-02 
1344	 0.082181994176116 
1345	 8.58541135458076E-02 
1346	 7.44436375284956E-02 
1347	 6.71591813860984E-03 
1348	-3.18876025182241E-02 
1349	-4.58642285048918E-02 
1350	-7.28087430761795E-02 
1351	-6.79510657893515E-03 
1352	 0.020614363697287 
1353	-0.052380727499156 
1354	-3.31097138617006E-02 
1355	 0.20283177253205 
1356	 0.471064954347962 
1357	 1.13270648160666 
1358	 2.32946840755513 
1359	 11.7921045388705 
1360	 0.163956334631382 
1361	 3.63680521415563E-02 
1362	 2.78529333039403E-02 
1363	 0.017469110843573 
1364	-0.295612352212417 
1365	-0.357914039429924 
1366	-0.259658212112626 
1367	-8.91367692008478E-02 
1368	 4.64854995397697E-02 
1369	 0.117003457441793 
1370	 0.173945724724365 
1371	 0.292233847150893 
1372	 0.733480091361 
1373	 1.14591699788905 
1374	 12.0071194782627 
1375	-2.93016569581373 
1376	-1.237155182329 
1377	-4.35012746219031 
1378	 2.24085414042401 
1379	 1.86520240498203 
1380	 1.3136987204869 
1381	 1.14213477587211 
1382	 0.858783001889615 
1383	 0.46198028069763 
1384	 0.13318590950811 
1385	 7.48988788770289E-02 
1386	 1.49022941864336 
1387	 2.32074128711451 
1388	-11.7719541192886 
1389	-4.16481560359069 
1390	-4.70128061501291 
1391	-6.27840090254604 
1392	 11.3206604507489 
1393	 1.1122990870393 
1394	 0.510955110896144 
1395	 3.75842292806601E-02 
1396	-9.48416120191176E-02 
1397	-0.580053879139105 
1398	-1.07888572633924 
1399	 1.50238913670233E-03 
1400	-0.402697811603158 
1401	-1.17743925745341 
1402	-12.9654602729729 
1403	 0.258709278913686 
1404	 6.61296813327952E-02 
1405	-0.282089672873381 
1406	-0.437383367719234 
1407	-1.24511667645969 
1408	-1.73651840092581 
1409	-0.796704432743141 
1410	-0.718028590862808 
1411	-0.617958938333582 
1412	-0.422550979523057 
1413	-0.39052319865212 
1414	-0.361970173240098 
1415	-8.70469729589862E-03 
1416	 0.191509157843272 
1417	 0.437995126632166 
1418	 0.382035423129511 
1419	-0.227571781114269 
1420	-0.36180759499817 
1421	-0.46604550969255 
1422	-0.589752467167369 
1423	-1.3150697868712 
1424	 4.40578225568703 
1425	 3.62083624262214 
1426	 131.243640398056 
1427	 10.4958884810256 
1428	-0.566815490663445 
1429	 2.78768713482734 
1430	-0.925183902192415 
1431	-0.830696173213341 
1432	-0.942287708452716 
1433	-0.809002149646904 
1434	-3.14502837220379E-02 
1435	 0.421192624858949 
1436	 0.850298689456131 
1437	 1.31897239675037 
1438	 1.06578039760733 
1439	 1.01698657823302 
1440	 0.69653056071184 
1441	 0.726574826758691 
1442	 0.960652817534643 
1443	 1.10145843014642 
1444	 1.30058562324202 
1445	 1.56430790668638 
1446	 2.28673167889665 
1447	 2.03849095418196 
1448	 2.09126923898662 
1449	 1.06254951650566 
1450	 0.35379726792001 
1451	 0.162792483193191 
1452	 4.21345529886901E-02 
1453	 4.64356172115998E-02 
1454	 7.54933525307486E-02 
1455	 9.80103847109573E-02 
1456	 0.165221522315778 
1457	 0.224530779675729 
1458	 0.225604289757205 
1459	 0.204009691391601 
1460	 0.180554799767525 
1461	 0.136812819941396 
1462	 0.101947974598969 
1463	 0.035445025231908 
1464	 0.033186718061193 
1465	 6.63274362146601E-02 
1466	 9.00297560281879E-02 
1467	 0.257773301270961 
1468	 0.236120555410166 
1469	 2.94406747369266E-02 
1470	-2.92760510887137E-02 
1471	-0.125189644847964 
1472	-0.125351131268009 
1473	-1.95770610714478E-02 
1474	 2.82723561097562E-02 
1475	 7.88786596520059E-02 
1476	 9.56814430530469E-02 
1477	 8.08032125177251E-02 
1478	 9.48639836173291E-02 
1479	 0.137772591208271 
1480	 0.126416253619466 
1481	 0.109182194830028 
1482	 8.48908903761229E-02 
1483	 1.87135009299307E-03 
1484	-5.13777297552495E-03 
1485	 2.43541974542157E-02 
1486	 4.06673009227206E-02 
1487	 8.01414752381223E-02 
1488	 8.63952650212091E-02 
1489	 6.98724145605463E-02 
1490	 6.93333557929147E-02 
1491	 7.00118531037445E-02 
1492	 6.85688403726478E-02 
1493	 7.60563735091229E-02 
1494	 7.27523521797789E-02 
1495	 5.64271483365026E-02 
1496	 5.16392801581502E-02 
1497	 4.58103195169212E-02 
1498	 4.79263752740195E-02 
1499	 6.05212447424902E-02 
1500	 6.74095622375329E-02 
1501	 8.31985402790217E-02 
1502	 8.46117325818147E-02 
1503	 7.86341834836688E-02 
1504	 8.03431558654379E-02 
1505	 7.74647064463071E-02 
1506	 6.92105523656423E-02 
1507	 6.92479639474403E-02 
1508	 7.31974368635566E-02 
1509	 7.29462927924339E-02 
1510	 7.35128042028093E-02 
1511	 7.40837394384341E-02 
1512	 7.31400653433229E-02 
1513	 7.29109970892817E-02 
1514	 7.31878007420007E-02 
1515	 7.45063933860268E-02 
1516	 7.61809998672007E-02 
1517	 7.64200752408307E-02 
1518	 7.79277088810208E-02 
1519	 7.85365621709686E-02 
1520	 7.72863748937501E-02 
1521	 7.63514139743542E-02 
1522	 7.55101133506483E-02 
1523	 7.51562471079302E-02 
1524	 7.31857762112391E-02 
1525	 7.39872346667923E-02 
1526	 7.86074960129448E-02 
1527	 7.94350942643347E-02 
1528	 8.04479331922278E-02 
1529	 7.92139370227174E-02 
1530	 7.32360239100294E-02 
1531	 0.071538520668909 
1532	 7.16552632526789E-02 
1533	 7.04580455143082E-02 
1534	 7.08577563496154E-02 
1535	 0.070204512219665 
1536	 6.64754815300899E-02 
1537	 6.57956850748366E-02 
1538	 6.71412470685922E-02 
1539	 6.76818349909594E-02 
1540	 6.93867445085812E-02 
1541	 7.06222899860811E-02 
1542	 7.15533049732377E-02 
1543	 7.21160957116726E-02 
1544	 7.17724764281739E-02 
1545	 7.26508484216963E-02 
1546	 0.074607861493691 
1547	 7.50260854528324E-02 
1548	 7.54401684776836E-02 
1549	 7.61413222749648E-02 
1550	 7.65373761933279E-02 
1551	 7.56603004975132E-02 
1552	 7.46699377922385E-02 
1553	 7.34436298970613E-02 
1554	 6.98969587455634E-02 
1555	 0.067255727627667 
1556	 6.64352066517167E-02 
1557	 6.38795490983678E-02 
1558	 5.96396054649624E-02 
1559	 5.71279927371854E-02 
1560	 5.30918743218471E-02 
1561	 5.17623946490067E-02 
1562	 5.26162078506437E-02 
1563	 5.45574773998649E-02 
1564	 6.01726291091624E-02 
1565	 6.25015389769482E-02 
1566	 6.26320502399547E-02 
1567	 6.31677076844747E-02 
1568	 6.13080033065875E-02 
1569	 6.27430101645124E-02 
1570	 6.41596788626353E-02 
1571	 6.56760036905019E-02 
1572	 6.86374303605008E-02 
1573	 6.57170345027221E-02 
1574	 6.43571245920165E-02 
1575	 6.35019830809935E-02 
1576	 5.63061222037153E-02 
1577	 5.35810206816949E-02 
1578	 5.57144799087183E-02 
1579	 5.60101006496066E-02 
1580	 5.95009076301672E-02 
1581	 6.30293138395416E-02 
1582	 6.22827158908064E-02 
1583	 6.19020915726052E-02 
1584	 6.34053744807986E-02 
1585	 6.52446113293644E-02 
1586	 6.70971616588608E-02 
1587	 7.05041437518896E-02 
1588	 7.09230585230722E-02 
1589	 6.99712485588566E-02 
1590	 6.93371867000446E-02 
1591	 6.72641920791302E-02 
1592	 0.066516960601243 
1593	 6.67099528748335E-02 
1594	 6.62173581126245E-02 
1595	 0.064648389723439 
1596	 6.50994148342072E-02 
1597	 6.71103496433107E-02 
1598	 6.66940821952225E-02 
1599	 6.64179414385454E-02 
1600	 6.62805281858241E-02 
1601	 6.38125241954568E-02 
1602	 6.32605843896844E-02 
1603	 6.51269488348858E-02 
1604	 6.53066358874239E-02 
1605	 0.064956845380293 
1606	 0.064181096289525 
1607	 6.20274767783171E-02 
1608	 6.29630291681447E-02 
1609	 6.49572389950406E-02 
1610	 6.64251179154519E-02 
1611	 7.02101655046249E-02 
1612	 0.070907834251609 
1613	 6.82959598426238E-02 
1614	 7.00387769587546E-02 
1615	 7.36783660627664E-02 
1616	 7.54589427095937E-02 
1617	 7.99866470419752E-02 
1618	 7.88623828918317E-02 
1619	 0.072051373243734 
1620	 7.15753022462904E-02 
1621	 0.071094023309872 
1622	 7.06983250885199E-02 
1623	 7.52669757886892E-02 
1624	 7.38105506360935E-02 
1625	 6.80596310913613E-02 
1626	 6.63992959836189E-02 
1627	 6.30067962752376E-02 
1628	 6.42563891342159E-02 
1629	 7.09744977193327E-02 
1630	 7.16218523763335E-02 
1631	 0.072428234908308 
1632	 7.14398760641737E-02 
1633	 6.58595564887629E-02 
1634	 6.20122704434999E-02 
1635	 5.74033076686286E-02 
1636	 0.057155961791703 
1637	 5.67695789539274E-02 
1638	 6.05605432805731E-02 
1639	 7.13569472401361E-02 
1640	 7.72972106423876E-02 
1641	 8.65300612435888E-02 
1642	 0.085081516624111 
1643	 7.58763167013656E-02 
1644	 7.17141557921909E-02 
1645	 6.02090768205406E-02 
1646	 5.84883959346886E-02 
1647	 6.65869735705234E-02 
1648	 6.76563892831396E-02 
1649	 6.78978964640675E-02 
1650	 6.65555491000564E-02 
1651	 6.11122178413985E-02 
1652	 6.24589086904855E-02 
1653	 0.068357756041191 
1654	 6.86384221576111E-02 
1655	 6.95340958603996E-02 
1656	 6.99396063275289E-02 
1657	 6.49207504142065E-02 
1658	 6.52818655192558E-02 
1659	 7.25366077462573E-02 
1660	 0.071100489981265 
1661	 6.36773579051277E-02 
1662	 6.21407919320155E-02 
1663	 6.20113448883878E-02 
1664	 6.37355629709001E-02 
1665	 6.80426263640208E-02 
1666	 7.09065035352203E-02 
1667	 7.01079711807348E-02 
1668	 0.066718708439739 
1669	 6.83159397468705E-02 
1670	 0.072508794391899 
1671	 0.074847673647183 
1672	 7.52894277915239E-02 
1673	 7.46086112153751E-02 
1674	 7.37311798353161E-02 
1675	 7.21001264196584E-02 
1676	 7.54832037815705E-02 
1677	 7.88218086178665E-02 
1678	 7.67675666872401E-02 
1679	 0.070554827333877 
1680	 6.72539488968163E-02 
1681	 7.01866921203421E-02 
1682	 7.08159835439871E-02 
1683	 7.64191847746491E-02 
1684	 8.23217852767558E-02 
1685	 7.80255081734244E-02 
1686	 7.54221478579988E-02 
1687	 7.19309115508729E-02 
1688	 6.91000549476052E-02 
1689	 7.08868715872146E-02 
1690	 6.96533404315784E-02 
1691	 7.04526095155061E-02 
1692	 7.24285547033635E-02 
1693	 7.13168833007314E-02 
1694	 7.06883428902362E-02 
1695	 7.31669384318785E-02 
1696	 7.21107816789792E-02 
1697	 6.68553537088827E-02 
1698	 6.97200972136877E-02 
1699	 7.43562538609265E-02 
1700	 7.28629373176645E-02 
1701	 7.44759922906237E-02 
1702	 7.45783175415299E-02 
1703	 6.96126669134268E-02 
1704	 6.41042522810753E-02 
1705	 6.18470653685459E-02 
1706	 5.96821847822046E-02 
1707	 5.44818138356578E-02 
1708	 5.86951965800479E-02 
1709	 6.42572308602168E-02 
1710	 6.72424625591157E-02 
1711	 7.43816670134175E-02 
1712	 7.57273950996532E-02 
1713	 7.64930114506281E-02 
1714	 8.23857252570287E-02 
1715	 8.21782721585359E-02 
1716	 7.70026627720797E-02 
1717	 7.76992902117993E-02 
1718	 7.63570536816403E-02 
1719	 7.12930675759209E-02 
1720	 7.75629618655009E-02 
1721	 0.079824470088346 
1722	 8.19609628722694E-02 
1723	 8.04779037591347E-02 
1724	 7.62277941228148E-02 
1725	 7.30945591795445E-02 
1726	 6.45743132722948E-02 
1727	 6.00536151007056E-02 
1728	 6.14147533855205E-02 
1729	 6.14390734652186E-02 
1730	 5.77178653711248E-02 
1731	 0.058980981072023 
1732	 6.38817869004715E-02 
1733	 6.54452527592735E-02 
1734	 6.91012231820566E-02 
1735	 7.01963045819947E-02 
1736	 6.71553372147902E-02 
1737	 7.16806880528718E-02 
1738	 8.49074342933864E-02 
1739	 8.91760486237695E-02 
1740	 8.64458616294305E-02 
1741	 8.27193805260573E-02 
1742	 0.070872600537166 
1743	 7.28235584371858E-02 
1744	 8.19768379256878E-02 
1745	 8.14099445772134E-02 
1746	 7.93044266326982E-02 
1747	 7.88666961952113E-02 
1748	 7.79674116608835E-02 
1749	 0.079870096586983 
1750	 8.52419967655828E-02 
1751	 8.48801958247087E-02 
1752	 7.86729640241519E-02 
1753	 7.15293682940553E-02 
1754	 6.69766681615487E-02 
1755	 4.83262942802134E-02 
1756	 4.44902558002173E-02 
1757	 5.70876210114138E-02 
1758	 4.73242834845839E-02 
1759	 6.16437439087968E-02 
1760	 6.73559217987933E-02 
1761	 5.14092055541311E-02 
1762	 0.069246917554919 
1763	 8.06528885797903E-02 
1764	 8.10821754438887E-02 
1765	 0.087369680532762 
1766	 8.54497422265099E-02 
1767	 9.11526126880446E-02 
1768	 9.67428006366287E-02 
1769	 9.66594682654439E-02 
1770	 0.105680914160536 
1771	 0.100379003517967 
1772	 9.40870700807664E-02 
1773	 0.108400840673612 
1774	 0.11203217071801 
1775	 9.42458285713031E-02 
1776	 7.73182340205653E-02 
1777	 6.50565386870507E-02 
1778	 6.04956519469931E-02 
1779	 8.72477561109195E-02 
1780	 0.115090379142329 
1781	 0.105363128086091 
1782	 8.59360930671019E-02 
1783	 0.077220046517979 
1784	 9.82663645621816E-02 
1785	 0.13844629980343 
1786	 0.224364831286482 
1787	 0.283192963923985 
1788	 0.275569143408309 
1789	 0.288650508014225 
1790	 0.238188706959125 
1791	 0.167533302676388 
1792	 0.171794477761342 
1793	 0.100309317296076 
1794	 9.33136482086673E-03 
1795	-0.046416991801135 
1796	-0.107249526077195 
1797	-9.51825806538836E-02 
1798	 0.15773321330992 
1799	 0.599373754011783 
1800	 0.473974346099562 
1801	 0.991759533845595 
1802	 1.0105304061053 
1803	 0.833689884370129 
1804	 0.836745271440921 
1805	 0.782932175555724 
1806	 0.699992191773774 
1807	 0.745608918967674 
1808	 1.08969326741169 
1809	 1.07483787097893 
1810	 0.851274517548899 
1811	 0.818112954234655 
1812	 0.655632611106275 
1813	 0.666296299938047 
1814	 1.00071553702856 
1815	 1.17296245419294 
1816	 1.28523250455279 
1817	 1.43991092445104 
1818	 1.56432228476269 
1819	 1.65641633492407 
1820	 1.56657920919626 
1821	 1.39390072634725 
1822	 1.24097042049519 
1823	 0.835784492455152 
1824	 0.647919353827147 
1825	 0.520587277261352 
1826	 0.498935402328292 
1827	 0.558810646087274 
1828	 0.829901226727313 
1829	 0.887111299673039 
1830	 0.964091027770253 
1831	 1.02284338622762 
1832	 0.894077340706539 
1833	 0.857832330857107 
1834	 0.952366253736758 
1835	 0.962792763387214 
1836	 0.940752149851747 
1837	 0.827767937428608 
1838	 0.821332471365924 
1839	 0.813623241842472 
1840	 0.853365991211623 
1841	 1.03024856774647 
1842	 1.11434784925896 
1843	 1.22934250280309 
1844	 1.28363304253026 
1845	 1.25546313911813 
1846	 1.11453525645778 
1847	 1.10416303208042 
1848	 1.10860265730858 
1849	 1.08144004365265 
1850	 1.06341548085438 
1851	 1.11473530965827 
1852	 1.23866776458551 
1853	 1.21515879289096 
1854	 1.10450036978238 
1855	 1.1314164000718 
1856	 1.17917944385146 
1857	 1.16821401730161 
1858	 1.19304252927402 
1859	 1.45692103599956 
1860	 1.46954943336393 
1861	 1.25636893781074 
1862	 1.17219820656421 
1863	 1.06726878595767 
1864	 1.00229763845831 
1865	 0.930939682032094 
1866	 0.884452988516736 
1867	 0.86012755940971 
1868	 0.873338929240442 
1869	 0.895031841886554 
1870	 1.00203219599616 
1871	 0.98168688411067 
1872	 0.895620000008892 
1873	 0.858435649001442 
1874	 0.687296582652642 
1875	 0.669172240073186 
1876	 0.819982437840262 
1877	 0.907044915744386 
1878	 0.944857743882715 
1879	 0.989657941969943 
1880	 1.04078512757111 
1881	 1.04936705893667 
1882	 1.02521866581444 
1883	 0.940133937193801 
1884	 1.00265822416679 
1885	 1.15907082319735 
1886	 1.20437699191143 
1887	 1.33718611613524 
1888	 1.40262508139408 
1889	 1.50443149786643 
1890	 1.47914395831708 
1891	 1.47147599320381 
1892	 1.68490804015953 
1893	 1.60494351525117 
1894	 1.2088037482409 
1895	 1.11327735785692 
1896	 1.14976207263149 
1897	 1.03926094732083 
1898	 0.900767414827577 
1899	 0.808559546354213 
1900	 0.748098217729883 
1901	 0.619266346341301 
1902	 0.612303680342738 
1903	 0.770531896762148 
1904	 0.790993619653728 
1905	 0.717837350578593 
1906	 0.732780551115121 
1907	 0.690668417026584 
1908	 0.71738692538616 
1909	 1.05720275184124 
1910	 1.66199657620431 
1911	 2.03476892281708 
1912	 3.26029293320145 
1913	 2.62810246652701 
1914	 1.10343845238309 
1915	 0.901043706857975 
1916	 0.810674123062417 
1917	 0.683923402486464 
1918	 0.595684742912095 
1919	 0.52385519953026 
1920	 0.50134130111776 
1921	 0.626063396301528 
1922	 0.701649278104172 
1923	 0.934094061967266 
1924	 1.1145897453038 
1925	 1.36813523323104 
1926	 1.56720697611382 
1927	 1.91119370237568 
1928	 2.11336533504057 
1929	 2.284192503662 
1930	 1.61156994312868 
1931	 1.36539636607265 
1932	 1.19156637624009 
1933	 0.857119186625709 
1934	 0.942506871092014 
1935	 0.987794041104013 
1936	 1.20882423071256 
1937	 1.24077188707361 
1938	 1.2112908522554 
1939	 1.22135029716176 
1940	 1.19287434597504 
1941	 1.15247598031308 
1942	 1.03454042457236 
1943	 1.26153001925809 
1944	 1.36361710092013 
1945	 1.34924120405534 
1946	 1.43654065512232 
1947	 1.76930753478746 
1948	 1.80433226246719 
1949	 1.76193221385844 
1950	 1.56701971814226 
1951	 1.15365042703719 
1952	 0.984655371823628 
1953	 0.881323656114638 
1954	 0.797454298473241 
1955	 0.804452001402479 
1956	 0.867076829436575 
1957	 0.970005389908461 
1958	 1.18371202519674 
1959	 1.13903241998251 
1960	 0.894226309905538 
1961	 0.843802680838294 
1962	 0.784435953608124 
1963	 0.721165306835417 
1964	 0.732152033155611 
1965	 0.639952499638335 
1966	 0.472652776932411 
1967	 0.362273730615543 
1968	 0.407793070845114 
1969	 0.457474718668152 
1970	 0.52687679200179 
1971	 0.736074805024107 
1972	 0.769050519848912 
1973	 0.738932353973629 
1974	 0.733725124149176 
1975	 0.61811217222647 
1976	 0.568851378085369 
1977	 0.563453358676993 
1978	 0.54443016175114 
1979	 0.570595063193673 
1980	 0.589481174726589 
1981	 0.646742363777309 
1982	 0.832132736014196 
1983	 0.866448964969353 
1984	 0.842331514891938 
1985	 0.817177227398495 
1986	 0.680695653016492 
1987	 0.641436327105002 
1988	 0.615581724649729 
1989	 0.650392244437993 
1990	 0.685452664707757 
1991	 0.713819825670399 
1992	 0.744304782314009 
1993	 0.7946232359789 
1994	 0.840962288391314 
1995	 0.98675191199051 
1996	 1.02854224165317 
1997	 0.950964312248611 
1998	 0.94995106638226 
1999	 0.887991037929317 
2000	 0.906865654014611 
2001	 1.03918924449781 
2002	 1.28245476958304 
2003	 1.33059637626252 
2004	 1.28139020019159 
2005	 1.1363907070641 
2006	 1.10957657503782 
2007	 1.37664440532321 
2008	 1.64028885388412 
2009	 1.63140118782922 
2010	 1.56764416692966 
2011	 1.37964236838191 
2012	 0.985301992814152 
2013	 0.756284034661505 
2014	 0.52369979098688 
2015	 0.464948061356508 
2016	 0.469013068254037 
2017	 0.537812439919359 
2018	 0.552873805856816 
2019	 0.535100297272969 
2020	 0.612038309768682 
2021	 0.568371600287877 
2022	 0.604224366730775 
2023	 0.683095936979002 
2024	 0.640190624884248 
2025	 0.458329526291832 
2026	 0.420449925916259 
2027	 0.388941473596161 
2028	 0.411123552389336 
2029	 0.444461762586207 
2030	 0.436817711285549 
2031	 0.469331686529256 
2032	 0.448207604817269 
2033	 0.407110957751449 
2034	 0.494452420062817 
2035	 0.49907804404767 
2036	 0.48814559760399 
2037	 0.505008155201355 
2038	 0.526257517633829 
2039	 0.514607790584976 
2040	 0.522567791688471 
2041	 0.520724410197086 
2042	 0.502250596897292 
2043	 0.461410091519559 
2044	 0.479215973395808 
2045	 0.456219235781819 
2046	 0.435925931507617 
2047	 0.455894735405433 
2048	 0.460504249545034 
2049	 0.510310481051156 
2050	 0.593899052751143 
2051	 0.672630900245726 
2052	 0.707043191516529 
2053	 0.717554566442329 
2054	 0.683209465857873 
2055	 0.582343365876769 
2056	 0.518161866138925 
2057	 0.447047503702296 
2058	 0.381851794218964 
2059	 0.382915011640585 
2060	 0.419467485182577 
2061	 0.444645627141735 
2062	 0.450735900078185 
2063	 0.431875338623559 
2064	 0.377064954009192 
2065	 0.294562463688463 
2066	 0.327709119614803 
2067	 0.342866629054141 
2068	 0.347025240286944 
2069	 0.359935967333058 
2070	 0.423358740190119 
2071	 0.43313249601303 
2072	 0.370465191851361 
2073	 0.33050226139944 
2074	 0.306389506968499 
2075	 0.2941546231048 
2076	 0.306003252572867 
2077	 0.346955616405912 
2078	 0.383768098161277 
2079	 0.376266771899811 
2080	 0.390512315102551 
2081	 0.420037346125882 
2082	 0.407086458644715 
2083	 0.358729167477359 
2084	 0.315813320758388 
2085	 0.225260721033398 
2086	 0.203897963274902 
2087	 0.224983671060748 
2088	 0.251585288361203 
2089	 0.334729715351351 
2090	 0.335630331008951 
2091	 0.29466986394858 
2092	 0.292376128297773 
2093	 0.251318459432053 
2094	 0.20355739599219 
2095	 0.204456456734812 
2096	 0.182162092022431 
2097	 0.164517551849191 
2098	 0.189223807670956 
2099	 0.207385021985377 
2100	 0.226544769846186 
2101	 0.2505095887403 
2102	 0.295820976559833 
2103	 0.334406655105587 
2104	 0.317468276399442 
2105	 0.278933690580715 
2106	 0.241252797983774 
2107	 0.197269908238922 
2108	 0.216926718220615 
2109	 0.279745280440524 
2110	 0.326640271064298 
2111	 0.33426266269662 
2112	 0.316463001056726 
2113	 0.317214125606372 
2114	 0.311388274795701 
2115	 0.302787064553259 
2116	 0.306842918345917 
2117	 0.313725426994039 
2118	 0.290289407545334 
2119	 0.253208457881212 
2120	 0.238816791683354 
2121	 0.210832286135503 
2122	 0.205897085464738 
2123	 0.214279965162496 
2124	 0.228498081100024 
2125	 0.238451088654324 
2126	 0.253034649518863 
2127	 0.264774826879533 
2128	 0.247590663359407 
2129	 0.219184023082649 
2130	 0.192931277084569 
2131	 0.197118472687386 
2132	 0.217178607266196 
2133	 0.222927314801959 
2134	 0.241064003584764 
2135	 0.247787826158067 
2136	 0.240201783788094 
2137	 0.219368084033672 
2138	 0.220633095651457 
2139	 0.222049575823149 
2140	 0.216082702732771 
2141	 0.211164313483626 
2142	 0.216944397028003 
2143	 0.223600878968383 
2144	 0.244109979185775 
2145	 0.253824783825698 
2146	 0.237863164094282 
2147	 0.237750985193465 
2148	 0.241364388709253 
2149	 0.263611997139199 
2150	 0.283485279449629 
2151	 0.339993869870395 
2152	 0.339436568716547 
2153	 0.293679132581447 
2154	 0.277462027299955 
2155	 0.248070910734558 
2156	 0.21980169508616 
2157	 0.261585017753232 
2158	 0.310747014602623 
2159	 0.325692220675845 
2160	 0.363920874420774 
2161	 0.344776897542452 
2162	 0.294885814691464 
2163	 0.301135968630434 
2164	 0.288814661906387 
2165	 0.283204644282739 
2166	 0.291064553614265 
2167	 0.261179509384526 
2168	 0.220706443781601 
2169	 0.200347385658717 
2170	 0.204726696781056 
2171	 0.203421946283804 
2172	 0.218198451258865 
2173	 0.227074219865842 
2174	 0.225445943161654 
2175	 0.222557914199744 
2176	 0.225384970853868 
2177	 0.20982446705264 
2178	 0.204378085040342 
2179	 0.230385953137613 
2180	 0.227974251521495 
2181	 0.23841721144177 
2182	 0.252891310363961 
2183	 0.237207047346985 
2184	 0.220788190380103 
2185	 0.223274069570847 
2186	 0.238179707364617 
2187	 0.232041386404746 
2188	 0.258911266847621 
2189	 0.274926723604857 
2190	 0.225997399797811 
2191	 0.246343525935139 
2192	 0.258914647912177 
2193	 0.254464293551025 
2194	 0.271414794990198 
2195	 0.321323084224321 
2196	 0.33271528284232 
2197	 0.32009385874355 
2198	 0.366424482923871 
2199	 0.361587820230399 
2200	 0.398232535475822 
2201	 0.469096763507867 
2202	 0.515228990466576 
2203	 0.580423517018583 
2204	 0.628995905597784 
2205	 0.616768807089832 
2206	 0.521245191369426 
2207	 0.47324462509657 
2208	 0.445238020124028 
2209	 0.383084988132019 
2210	 0.396057459092348 
2211	 0.387353798996544 
2212	 0.319502029403301 
2213	 0.342608335777915 
2214	 0.331329082076267 
2215	 0.309672033097245 
2216	 0.292462572966445 
2217	 0.304325567782247 
2218	 0.3041225687929 
2219	 0.308896316909527 
2220	 0.35290731433215 
2221	 0.342585979886504 
2222	 0.290288834768864 
2223	 0.268943703754723 
2224	 0.218316935388734 
2225	 0.189548145657915 
2226	 0.194181637925676 
2227	 0.194776756624048 
2228	 0.250868385780303 
2229	 0.359183838732753 
2230	 0.443737569887653 
2231	 0.5167535384141 
2232	 0.526155355562279 
2233	 0.475085806155229 
2234	 0.461144845625208 
2235	 0.421113828701883 
2236	 0.372605168385262 
2237	 0.379613737960039 
2238	 0.359570865298969 
2239	 0.352736650432016 
2240	 0.342234787825388 
2241	 0.281531605101698 
2242	 0.269730616811938 
2243	 0.259609627059222 
2244	 0.268027288532026 
2245	 0.354496303506615 
2246	 0.36853468455494 
2247	 0.306788252928039 
2248	 0.315914852021202 
2249	 0.328692525280855 
2250	 0.352859395607423 
2251	 0.427796800877697 
2252	 0.547182176057306 
2253	 0.525107343379935 
2254	 0.536055535064131 
2255	 0.577612295946352 
2256	 0.527090549787185 
2257	 0.495935964795848 
2258	 0.469266470938745 
2259	 0.45079755561479 
2260	 0.447467106414148 
2261	 0.423764027718229 
2262	 0.401880315978368 
2263	 0.345444240286402 
2264	 0.284158899427644 
2265	 0.289706952162345 
2266	 0.345158832110382 
2267	 0.364005497145799 
2268	 0.34760207003604 
2269	 0.385296986077329 
2270	 0.378171915432672 
2271	 0.3624278942353 
2272	 0.363527239891411 
2273	 0.367138933210458 
2274	 0.332260456850339 
2275	 0.34099453722648 
2276	 0.383182625437669 
2277	 0.410206100480692 
2278	 0.470564463858953 
2279	 0.451884317546108 
2280	 0.396152171839611 
2281	 0.364813559423304 
2282	 0.271300611745659 
2283	 0.238692651020196 
2284	 0.263472351530967 
2285	 0.24422971755356 
2286	 0.217241397625734 
2287	 0.243145125991336 
2288	 0.279337150894197 
2289	 0.257859522385117 
2290	 0.257491141186031 
2291	 0.257239787996636 
2292	 0.195282149148157 
2293	 0.225334922848267 
2294	 0.329782418869087 
2295	 0.3995526959524 
2296	 0.467575176235979 
2297	 0.494754233140071 
2298	 0.412570926238285 
2299	 0.364307133691168 
2300	 0.357933467400343 
2301	 0.303602248263091 
2302	 0.329312120307408 
2303	 0.360988912838489 
2304	 0.438363336291362 
2305	 0.528312868611632 
2306	 0.601261110628995 
2307	 0.619600564168098 
2308	 0.562169941570246 
2309	 0.374305238383863 
2310	 0.343608404701182 
2311	 0.304475793334406 
2312	 0.323651759009436 
2313	 0.458717576726293 
2314	 0.50248095780857 
2315	 0.566013224161548 
2316	 0.589165536847897 
2317	 0.557065666907435 
2318	 0.547016359472226 
2319	 0.500259513450481 
2320	 0.439433952713186 
2321	 0.352158369465593 
2322	 0.294864793065946 
2323	 0.229034447470767 
2324	 0.205912061123909 
2325	 0.222153808288611 
2326	 0.226938561014308 
2327	 0.244204672249953 
2328	 0.284447368674225 
2329	 0.335568502626014 
2330	 0.421087445845983 
2331	 0.542427613504659 
2332	 0.641285795452558 
2333	 0.817798655182831 
2334	 0.897553306863698 
2335	 0.904287685036587 
2336	 0.973250708648021 
2337	 0.924767756178491 
2338	 0.763948217557318 
2339	 0.877882172319584 
2340	 0.841501851353479 
2341	 0.800398529301835 
2342	 0.93050368324775 
2343	 0.832512114173705 
2344	 0.678156154135453 
2345	 0.635937715807646 
2346	 0.668015769094805 
2347	 0.783701119290909 
2348	 1.06420597949503 
2349	 1.25016654644305 
2350	 1.22426392976969 
2351	 1.0149737404073 
2352	 0.815913128775771 
2353	 0.86688678642097 
2354	 1.13793100376541 
2355	 1.19266198406401 
2356	 1.17652163700588 
2357	 1.01206741618909 
2358	 0.582581533606411 
2359	 0.535709349771431 
2360	 0.721447030017179 
2361	 0.944691353303196 
2362	 1.42216908624314 
2363	 1.4210035162746 
2364	 1.21410093120379 
2365	 0.879352561310389 
2366	 0.837832574238989 
2367	 0.746875202522021 
2368	 0.500720918324444 
2369	 0.616403494536429 
2370	 0.603355344727576 
2371	 0.664600240220093 
2372	 0.87995715435839 
2373	 0.955123745913914 
2374	 1.01210516247705 
2375	 1.03778160447364 
2376	 1.00283182555314 
2377	 0.901715570616885 
2378	 0.584957589812227 
2379	 0.52770777711824 
2380	 0.607929728652222 
2381	 0.660024422391306 
2382	 1.08672618461039 
2383	 2.35941972968604 
2384	 6.17540067705078 
2385	 4.27888053203088 
2386	 2.63499854964144 
2387	 2.27701508320309 
2388	 1.8108390001578 
2389	 1.57428695106154 
2390	 1.48560419215161 
2391	 1.25716928955701 
2392	 0.696951992009938 
2393	 0.610644415468102 
2394	 0.744109513257026 
2395	 0.884449037430731 
2396	 2.09425294284885 
2397	 2.62996803157306 
2398	 1.63037739501135 
2399	 1.42632715066335 
2400	 0.753893845892974 
2401	 0.870328407685172 
2402	 1.75111025885052 
2403	 1.91519381914298 
2404	 2.13359374988854 
2405	 2.01749815738111 
2406	 1.3761369158929 
2407	 1.32412419087578 
2408	 1.72713304869481 
2409	 1.46337413432005 
2410	 1.10996640888953 
2411	 0.976874635495958 
2412	 0.761499834702636 
2413	 0.721847754772117 
2414	 0.786677922632376 
2415	 0.833084650724644 
2416	 0.98021117230618 
2417	 1.02178891508038 
2418	 0.931549063229232 
2419	 1.00881875739871 
2420	 1.14309984513567 
2421	 1.30113644079569 
2422	 1.80754543119125 
2423	 2.20548754976581 
2424	 2.20293649398468 
2425	 2.36329701538812 
2426	 2.7386484300239 
2427	 2.59696117875288 
2428	 2.27410500051531 
2429	 2.12066989432824 
2430	 1.64358378085546 
2431	 1.51122000466911 
2432	 1.34199759236377 
2433	 1.6036132270802 
2434	 28.5449436694125 
2435	-9.53044105917551 
2436	-3.61605766837579 
2437	-16.3843460852629 
2438	 2.77108859257904 
2439	 2.56382808287227 
2440	 2.78245436792783 
2441	 2.48393302369395 
2442	 2.7754611711106 
2443	 2.10542090878732 
2444	 1.38646742406109 
2445	 1.29629922218096 
2446	 1.1152266463759 
2447	 1.58406107383666 
2448	 6.09186239925442 
2449	-79.3122650582271 
2450	-15.1705141224526 
2451	 357.137741026769 
2452	 6.84035690446852 
2453	 2.37814827595322 
2454	 1.78694802879331 
2455	 1.55604035570785 
2456	 0.952532740496597 
2457	 2.30008870021103 
2458	 2.30884587992026 
2459	 1.28583896948981 
2460	 1.29712873224002 
2461	 1.73323521299564 
2462	 1.5693261723262 
2463	 1.73163324385954 
2464	 1.55332852234717 
2465	 0.808560436119598 
2466	 0.674341714498696 
2467	 0.712771132184289 
2468	 0.747264460125056 
2469	 1.18270855212695 
2470	 1.69056945373613 
2471	 2.35378465758233 
2472	 2.03220912673549 
2473	 0.981086447978866 
2474	 0.78200106967287 
2475	 0.474294397464405 
2476	 0.455520708937316 
2477	 0.694550398386515 
2478	 0.802662597988376 
2479	 1.00076428541348 
2480	 1.01764201123198 
2481	 0.850203120866637 
2482	 0.700140449080464 
2483	 0.250400139393546 
2484	 3.70961901047731E-02 
2485	 6.58925766564511E-02 
2486	 0.291436465537673 
2487	 1.05533474889396 
2488	 2.02052913702143 
2489	 4.96530923402187 
2490	 8.03956809168072 
2491	 16.8030094899842 
2492	 8.79185583522012 
2493	 3.91336638965492 
2494	 2.73380362048837 
2495	 1.73728929027762 
2496	 1.66905236049525 
2497	 2.1205687210011 
2498	 1.76322833504222 
2499	 1.27381340045876 
2500	 1.05549750356974 
