Wavelength	000012.asd
350	 0.0422442757195 
351	 4.28761078326443E-02 
352	 4.39093980259005E-02 
353	 4.47379376375403E-02 
354	 0.044421791332392 
355	 4.48189083450478E-02 
356	 0.045785428130409 
357	 0.045305459159344 
358	 4.51850592187241E-02 
359	 4.57404993315054E-02 
360	 4.66676830080067E-02 
361	 4.71647870700923E-02 
362	 0.047657896150917 
363	 4.69832483598632E-02 
364	 4.50421486108312E-02 
365	 4.51120945642027E-02 
366	 4.55161796001676E-02 
367	 4.57792777862374E-02 
368	 4.60150018329217E-02 
369	 4.68905415509699E-02 
370	 0.048085643175015 
371	 4.89633141532403E-02 
372	 4.88678585253504E-02 
373	 4.86219793537299E-02 
374	 0.047787967536769 
375	 4.72529061709574E-02 
376	 4.95444207348186E-02 
377	 5.01327685686938E-02 
378	 4.98695728811377E-02 
379	 5.01281140988255E-02 
380	 0.050602037908869 
381	 5.04765064707916E-02 
382	 5.00893493690652E-02 
383	 4.99990472218081E-02 
384	 4.93444379502514E-02 
385	 5.04365925376493E-02 
386	 5.21914135062233E-02 
387	 0.051712206008015 
388	 5.17013647056786E-02 
389	 5.23614958856264E-02 
390	 5.30428108527671E-02 
391	 5.25072972904286E-02 
392	 5.28935210727024E-02 
393	 5.35822434959905E-02 
394	 5.38745718897857E-02 
395	 5.42094794596023E-02 
396	 5.45230915517232E-02 
397	 0.054903517270337 
398	 5.53103472734966E-02 
399	 5.50538027544557E-02 
400	 5.49053199999237E-02 
401	 5.53569103444241E-02 
402	 5.64526410436937E-02 
403	 5.63485096027435E-02 
404	 5.62962839069789E-02 
405	 5.68996662373456E-02 
406	 5.75088202671208E-02 
407	 5.78858942350435E-02 
408	 5.82535480768564E-02 
409	 5.86890379695982E-02 
410	 5.84332174361973E-02 
411	 5.91252274642989E-02 
412	 5.97904670620417E-02 
413	 0.05899951858296 
414	 5.91314027643876E-02 
415	 5.97468974459409E-02 
416	 6.04599889673851E-02 
417	 6.10741371316947E-02 
418	 6.10987106690079E-02 
419	 6.13041457428793E-02 
420	 6.19149917167937E-02 
421	 6.17246185780013E-02 
422	 6.23220811922636E-02 
423	 6.31349447833685E-02 
424	 0.06327971071959 
425	 6.33669375860935E-02 
426	 6.36533401881769E-02 
427	 6.40684871393553E-02 
428	 6.43595882274046E-02 
429	 6.48388319368824E-02 
430	 6.52793617535052E-02 
431	 0.06556620695092 
432	 6.58245701906175E-02 
433	 6.59322067769221E-02 
434	 6.61462589209247E-02 
435	 6.66337026711783E-02 
436	 6.71272669606207E-02 
437	 6.73964449703641E-02 
438	 0.067682043061223 
439	 6.82990177780857E-02 
440	 6.84145293726832E-02 
441	 6.86060861222894E-02 
442	 6.91202596577052E-02 
443	 6.97033907073289E-02 
444	 6.99750728793091E-02 
445	 7.01380208272399E-02 
446	 7.04012535667728E-02 
447	 7.06648104918265E-02 
448	 0.070803092158646 
449	 7.09477510634248E-02 
450	 7.13040872746576E-02 
451	 7.18012307836391E-02 
452	 7.22248575494783E-02 
453	 7.25206851349104E-02 
454	 7.28051164373033E-02 
455	 7.28547491087097E-02 
456	 7.30625766279134E-02 
457	 7.36376847379599E-02 
458	 7.40689654622955E-02 
459	 0.074310052587133 
460	 7.44063687304671E-02 
461	 7.44693927860412E-02 
462	 0.074589693459411 
463	 7.48018435442751E-02 
464	 7.50474132040751E-02 
465	 7.51866109164734E-02 
466	 7.52925801930029E-02 
467	 7.56214694855296E-02 
468	 0.076162183962854 
469	 7.61095534271272E-02 
470	 7.62964651871629E-02 
471	 7.66503338733724E-02 
472	 7.68064381170519E-02 
473	 7.71368070679862E-02 
474	 7.73498221414399E-02 
475	 7.74174134837447E-02 
476	 7.76240020265141E-02 
477	 7.78053333702549E-02 
478	 7.80522936798965E-02 
479	 7.83588725945129E-02 
480	 7.82972765075269E-02 
481	 7.85542217515942E-02 
482	 7.90564777288369E-02 
483	 7.93972774714258E-02 
484	 7.95143604802201E-02 
485	 7.96663342684043E-02 
486	 8.00298524454367E-02 
487	 8.06128188201157E-02 
488	 8.08450301970115E-02 
489	 8.09123867823893E-02 
490	 8.11014856612475E-02 
491	 0.081405008380748 
492	 8.21462415494972E-02 
493	 8.27771488781547E-02 
494	 8.25186861570724E-02 
495	 8.23508931976301E-02 
496	 8.27026409995084E-02 
497	 8.34299460661956E-02 
498	 8.37304192590201E-02 
499	 8.40145513514368E-02 
500	 8.43604190400787E-02 
501	 8.47374234962262E-02 
502	 8.49773436948108E-02 
503	 8.54932334159031E-02 
504	 8.60729033448291E-02 
505	 8.62053375649883E-02 
506	 8.63556451092272E-02 
507	 8.68260207668789E-02 
508	 8.76218957506083E-02 
509	 8.83639041488377E-02 
510	 8.85291721314679E-02 
511	 8.85123468928816E-02 
512	 8.88220245963328E-02 
513	 8.91991261366976E-02 
514	 8.94405948772127E-02 
515	 8.96939967927551E-02 
516	 9.03447221347964E-02 
517	 9.10587609744281E-02 
518	 9.14334024922047E-02 
519	 9.15027012157174E-02 
520	 9.21708479664734E-02 
521	 9.26939313639202E-02 
522	 9.29511638472358E-02 
523	 9.30876263325613E-02 
524	 9.35112386247884E-02 
525	 9.39710637745711E-02 
526	 9.44112306455483E-02 
527	 9.49806250590883E-02 
528	 9.51434232676639E-02 
529	 9.52137706580669E-02 
530	 9.55548664373114E-02 
531	 9.62618587989581E-02 
532	 9.69034048349875E-02 
533	 9.73691069455983E-02 
534	 9.77178125856257E-02 
535	 9.79424302712292E-02 
536	 9.82178638527543E-02 
537	 0.0986553720186 
538	 9.92688218355399E-02 
539	 9.95429560722547E-02 
540	 9.96281252387489E-02 
541	 9.98455450819648E-02 
542	 0.10038088000394 
543	 0.100837902219767 
544	 0.10122545878684 
545	 0.101782666662518 
546	 0.102042252398256 
547	 0.102282079740675 
548	 0.102739247206642 
549	 0.103419354117632 
550	 0.103869942182507 
551	 0.104155269747277 
552	 0.104492361244555 
553	 0.10482175506726 
554	 0.105236968442047 
555	 0.105719678670091 
556	 0.106144812238575 
557	 0.106560956421793 
558	 0.106873652701235 
559	 0.107136466850521 
560	 0.107938139650473 
561	 0.108336365891054 
562	 0.108434920367175 
563	 0.108796433590732 
564	 0.109220128967981 
565	 0.109709886814644 
566	 0.110167596389011 
567	 0.110320962230833 
568	 0.110735941170724 
569	 0.111142574056798 
570	 0.111202208551127 
571	 0.111378827437082 
572	 0.111630492450967 
573	 0.111997704609252 
574	 0.112552578549816 
575	 0.11278317248541 
576	 0.113005786968409 
577	 0.113438627931561 
578	 0.113774377524904 
579	 0.114112329629076 
580	 0.114496785235461 
581	 0.114912664252992 
582	 0.115062818742981 
583	 0.115347632956345 
584	 0.115812418273459 
585	 0.116041506080404 
586	 0.116181374987435 
587	 0.116325935557957 
588	 0.116526767533846 
589	 0.116653507485488 
590	 0.116799430500594 
591	 0.117125038487797 
592	 0.117747476256703 
593	 0.118062806510743 
594	 0.11829052686329 
595	 0.118541717893915 
596	 0.118552851228422 
597	 0.119094123850432 
598	 0.119766798424582 
599	 0.120029688644951 
600	 0.120508182520224 
601	 0.120805489744513 
602	 0.120931579068952 
603	 0.12125949451482 
604	 0.121279792118199 
605	 0.121423067909949 
606	 0.121952531054791 
607	 0.12227683788878 
608	 0.122549924801044 
609	 0.122767738095276 
610	 0.122877042595904 
611	 0.122926612195146 
612	 0.12316319102418 
613	 0.123579334107184 
614	 0.123789376417839 
615	 0.124017843951518 
616	 0.124326289745837 
617	 0.124694284336044 
618	 0.125004619867112 
619	 0.12510940780542 
620	 0.125091446302214 
621	 0.125207995948515 
622	 0.125697202991077 
623	 0.126123000575016 
624	 0.126222437128027 
625	 0.126353713986478 
626	 0.126602763188997 
627	 0.126861494807353 
628	 0.126970665460984 
629	 0.127090950162209 
630	 0.127371884767536 
631	 0.12777862784186 
632	 0.128077595322253 
633	 0.128523770624446 
634	 0.128815729502172 
635	 0.128801134633368 
636	 0.129109723559088 
637	 0.129553180669543 
638	 0.129725385872756 
639	 0.129292301535795 
640	 0.129761326731224 
641	 0.130396154781781 
642	 0.130654281674775 
643	 0.1308028238955 
644	 0.131052680930872 
645	 0.131172077253035 
646	 0.130975481533759 
647	 0.131265673832589 
648	 0.131919667753929 
649	 0.132512939048768 
650	 0.132534208408206 
651	 0.132689138316436 
652	 0.132867739663694 
653	 0.133014302249582 
654	 0.133597371753432 
655	 0.134089516143405 
656	 0.134275275807905 
657	 0.134155349340417 
658	 0.134253835312601 
659	 0.134517917276028 
660	 0.134962888386642 
661	 0.135685611913442 
662	 0.135717690920116 
663	 0.135465169859411 
664	 0.135509724215384 
665	 0.135893062433243 
666	 0.136371466161942 
667	 0.136717815633343 
668	 0.13677305979414 
669	 0.136876396690867 
670	 0.137053930261917 
671	 0.137313370412236 
672	 0.137687219141658 
673	 0.138383947175009 
674	 0.138870292505869 
675	 0.138725282546676 
676	 0.138938918210607 
677	 0.139098908681895 
678	 0.139212581985266 
679	 0.139618101262091 
680	 0.140019486554111 
681	 0.140410838087513 
682	 0.140821026064303 
683	 0.141238851172046 
684	 0.141898781930496 
685	 0.142405997107901 
686	 0.142387353734033 
687	 0.143148019923859 
688	 0.143876824413977 
689	 0.144396200655065 
690	 0.145574326054438 
691	 0.146619698375337 
692	 0.147196104893285 
693	 0.14732346719448 
694	 0.147755606925946 
695	 0.148445107528382 
696	 0.149283284702941 
697	 0.150165272776176 
698	 0.150826330340148 
699	 0.151429423717622 
700	 0.152034243097983 
701	 0.152587564130903 
702	 0.153410547850965 
703	 0.154283537074901 
704	 0.154956266945282 
705	 0.155275255251317 
706	 0.15603802426821 
707	 0.157025837842801 
708	 0.157558162783781 
709	 0.157871938455248 
710	 0.158321421837095 
711	 0.158982478616993 
712	 0.159548614595478 
713	 0.160382753817796 
714	 0.161127060599314 
715	 0.161382221541337 
716	 0.161204681075293 
717	 0.161133783943607 
718	 0.161540982414066 
719	 0.162390961452042 
720	 0.163474351744646 
721	 0.164387380384609 
722	 0.164935741270406 
723	 0.164747817324058 
724	 0.164688424373707 
725	 0.165144579789907 
726	 0.166066938275878 
727	 0.166790306562342 
728	 0.167449652989112 
729	 0.168000524947971 
730	 0.168374213349876 
731	 0.169358671481828 
732	 0.170553156686972 
733	 0.171459536094763 
734	 0.171673693027527 
735	 0.172089947826846 
736	 0.172639058938478 
737	 0.173085612056865 
738	 0.173630067897924 
739	 0.174403789164786 
740	 0.175326361104303 
741	 0.176165341554187 
742	 0.176499892755709 
743	 0.17686588071457 
744	 0.177478937388502 
745	 0.177958123993751 
746	 0.178474438510119 
747	 0.178909967688944 
748	 0.179196998904386 
749	 0.179645349182402 
750	 0.180311003238552 
751	 0.180842215588261 
752	 0.180838050255738 
753	 0.181621978646442 
754	 0.182213011973205 
755	 0.18227549089551 
756	 0.182661022255456 
757	 0.182707734150307 
758	 0.18260656858041 
759	 0.182620628741156 
760	 0.182226835500725 
761	 0.181928508195919 
762	 0.182005396967295 
763	 0.182124307308833 
764	 0.183083225144566 
765	 0.184563066547615 
766	 0.18589703137521 
767	 0.186599607680133 
768	 0.187117918861936 
769	 0.187424758285656 
770	 0.187565907662036 
771	 0.187964990619093 
772	 0.188144775220418 
773	 0.188383262387227 
774	 0.189063949347556 
775	 0.189572782256553 
776	 0.189972875938376 
777	 0.190330051222186 
778	 0.1906690302864 
779	 0.190789065700969 
780	 0.19098302167872 
781	 0.191406585910591 
782	 0.19184677084022 
783	 0.192123750694103 
784	 0.192265915291126 
785	 0.192381265169896 
786	 0.19257890768961 
787	 0.192600425218314 
788	 0.192594706779635 
789	 0.192947022771906 
790	 0.193534215793926 
791	 0.193990706988547 
792	 0.194300479409984 
793	 0.194866800990329 
794	 0.194781696615845 
795	 0.194758432207806 
796	 0.195346290178305 
797	 0.195867286609338 
798	 0.195883665980526 
799	 0.195713784785388 
800	 0.195924628309318 
801	 0.196608596223723 
802	 0.197232463274771 
803	 0.197534716730133 
804	 0.197589949815323 
805	 0.19793436581374 
806	 0.198317615605672 
807	 0.198429795554891 
808	 0.198002937976916 
809	 0.198125968216571 
810	 0.198297577742667 
811	 0.198017368122454 
812	 0.198276986978136 
813	 0.198378893005075 
814	 0.198373797555408 
815	 0.198640017657415 
816	 0.198865607648632 
817	 0.198762732687024 
818	 0.198844479872767 
819	 0.199860673142826 
820	 0.200300980581534 
821	 0.200445334092569 
822	 0.200665268332037 
823	 0.201204038932654 
824	 0.201385247221174 
825	 0.201431729979027 
826	 0.201602109340307 
827	 0.201812499273627 
828	 0.201594426993789 
829	 0.201710279211621 
830	 0.202834278696275 
831	 0.203336111696079 
832	 0.203885223929739 
833	 0.204476213304184 
834	 0.20475476670768 
835	 0.204891299837367 
836	 0.205350658022547 
837	 0.205846026223461 
838	 0.205512850220421 
839	 0.205832865421999 
840	 0.2061310588543 
841	 0.206241906388615 
842	 0.207380448943926 
843	 0.207799364518044 
844	 0.207693969947307 
845	 0.207713015438869 
846	 0.208277327664812 
847	 0.208840568025365 
848	 0.209070285316471 
849	 0.208871060766571 
850	 0.208713010947146 
851	 0.209066026290813 
852	 0.209763362387099 
853	 0.210216299410202 
854	 0.210366531927583 
855	 0.210394005246106 
856	 0.210553739642945 
857	 0.211031233448338 
858	 0.210843699381472 
859	 0.210823813773426 
860	 0.211351303373031 
861	 0.211737033538955 
862	 0.212580250230233 
863	 0.212945382235692 
864	 0.212389024377458 
865	 0.212475996818953 
866	 0.212511939988521 
867	 0.213060447065509 
868	 0.214218970829703 
869	 0.213145114669296 
870	 0.213266893158777 
871	 0.214175315318975 
872	 0.214117970867933 
873	 0.214141778625633 
874	 0.214582870692463 
875	 0.214945731039104 
876	 0.214479380009901 
877	 0.214755650001176 
878	 0.214975541008033 
879	 0.214937773409923 
880	 0.215183553614706 
881	 0.215590947620766 
882	 0.215554442379794 
883	 0.215238699895378 
884	 0.215776448988666 
885	 0.21609816670386 
886	 0.216046459877382 
887	 0.21591808629098 
888	 0.216447329507627 
889	 0.216234117566024 
890	 0.216153467712443 
891	 0.216732895151018 
892	 0.216126520880784 
893	 0.215005404029389 
894	 0.214513537747894 
895	 0.215237986055469 
896	 0.214329473932747 
897	 0.214078727161615 
898	 0.214699141570333 
899	 0.215172603817875 
900	 0.214507659582667 
901	 0.213925815366441 
902	 0.214558752945346 
903	 0.216378636869134 
904	 0.215219130969767 
905	 0.21604577234381 
906	 0.217792418663373 
907	 0.216784269786854 
908	 0.217132537304139 
909	 0.217085941758899 
910	 0.215752109597366 
911	 0.213845059826902 
912	 0.21455401964081 
913	 0.214679472563086 
914	 0.214020355861565 
915	 0.215152308500133 
916	 0.218429367784042 
917	 0.218975025666156 
918	 0.217271465434419 
919	 0.217738733313579 
920	 0.217725185788153 
921	 0.219260589621902 
922	 0.220719475238585 
923	 0.21752435840005 
924	 0.219355877515761 
925	 0.220174174359004 
926	 0.216617113368774 
927	 0.213425701849146 
928	 0.215020628477328 
929	 0.215487118916914 
930	 0.211890554690272 
931	 0.214933887018583 
932	 0.212182587337197 
933	 0.213872787952621 
934	 0.223546398657901 
935	 0.21595330502206 
936	 0.195102726823626 
937	 0.200665006189139 
938	 0.223369928202596 
939	 0.208996712168136 
940	 0.200841930674452 
941	 0.195678562846543 
942	 0.193349584173019 
943	 0.202960999403801 
944	 0.202449659439608 
945	 0.196119649704051 
946	 0.19411755587 
947	 0.203705651926653 
948	 0.206386293537764 
949	 0.211216387600558 
950	 0.216856110555917 
951	 0.21057307879898 
952	 0.213952665846871 
953	 0.220839917083992 
954	 0.224390647862524 
955	 0.222405501583603 
956	 0.217936606267813 
957	 0.217448286711512 
958	 0.218571605604872 
959	 0.214242758335826 
960	 0.217167737193628 
961	 0.220839816867608 
962	 0.218895027530197 
963	 0.210630377533734 
964	 0.215152618051357 
965	 0.223967576470691 
966	 0.227131989124863 
967	 0.220088974708445 
968	 0.218233689538752 
969	 0.223710440205738 
970	 0.227094664900744 
971	 0.219836846405362 
972	 0.224041166686572 
973	 0.224840233600054 
974	 0.222704005226952 
975	 0.225201440070084 
976	 0.227365749610168 
977	 0.225748076438364 
978	 0.222876642329789 
979	 0.222954842921693 
980	 0.226998908792978 
981	 0.23063906814234 
982	 0.232395875037732 
983	 0.232183135938266 
984	 0.230373263070067 
985	 0.227527180372778 
986	 0.228228430212464 
987	 0.232474855986801 
988	 0.231026047727324 
989	 0.229990868979621 
990	 0.228234363213391 
991	 0.227229525469398 
992	 0.232921549153029 
993	 0.23252334268748 
994	 0.230724454499895 
995	 0.230575653448609 
996	 0.230419112999806 
997	 0.233560965762827 
998	 0.233850141099928 
999	 0.230933116747312 
1000	 0.229758346292515 
1001	 0.239774123161961 
1002	 0.240273808715766 
1003	 0.243378052078387 
1004	 0.244577005950393 
1005	 0.245003862729787 
1006	 0.245097562330962 
1007	 0.244135092466366 
1008	 0.243838935473385 
1009	 0.243182736771711 
1010	 0.243681778674505 
1011	 0.243882116381386 
1012	 0.24757371527348 
1013	 0.248790942048998 
1014	 0.246345422715977 
1015	 0.246029585638848 
1016	 0.245435083832077 
1017	 0.245608634446679 
1018	 0.248594764157482 
1019	 0.248789017240105 
1020	 0.246995501352951 
1021	 0.245750787983252 
1022	 0.242927672878035 
1023	 0.242340585927769 
1024	 0.242802814971399 
1025	 0.244331482457994 
1026	 0.245555849032047 
1027	 0.245801029714148 
1028	 0.244878496270777 
1029	 0.243095720245915 
1030	 0.239441440378423 
1031	 0.238237177484323 
1032	 0.237921374309495 
1033	 0.237265367677737 
1034	 0.237982455165206 
1035	 0.242457497392638 
1036	 0.243356765961005 
1037	 0.242171401746994 
1038	 0.243303342393654 
1039	 0.244615958803333 
1040	 0.245385884056465 
1041	 0.248540427390394 
1042	 0.250556830131517 
1043	 0.249295353201095 
1044	 0.247805440341771 
1045	 0.246795300280493 
1046	 0.24697501885966 
1047	 0.24845047273007 
1048	 0.248626335157349 
1049	 0.248368475258559 
1050	 0.246529501791031 
1051	 0.246237564138652 
1052	 0.246203775185688 
1053	 0.245939812669984 
1054	 0.247931652001689 
1055	 0.249035625150809 
1056	 0.247320972735657 
1057	 0.247763199886391 
1058	 0.250105705473649 
1059	 0.249963370376584 
1060	 0.25008396545322 
1061	 0.251393556970008 
1062	 0.250792312174258 
1063	 0.250497802254368 
1064	 0.250447283674838 
1065	 0.251844229760517 
1066	 0.251251903100733 
1067	 0.250174224184169 
1068	 0.250982327483991 
1069	 0.249435234623072 
1070	 0.248585000911213 
1071	 0.250257626762172 
1072	 0.248815384120613 
1073	 0.248670384685594 
1074	 0.251238588756011 
1075	 0.252277965210767 
1076	 0.253498914066931 
1077	 0.253594201286633 
1078	 0.251546233837989 
1079	 0.251106393609074 
1080	 0.25039491154987 
1081	 0.249935088408473 
1082	 0.251352576864656 
1083	 0.253431802377117 
1084	 0.253695742134704 
1085	 0.253293391512124 
1086	 0.252195288244037 
1087	 0.252764344628764 
1088	 0.253340919342079 
1089	 0.254245068106262 
1090	 0.254992702944396 
1091	 0.253103102227203 
1092	 0.252046315059487 
1093	 0.250798656523539 
1094	 0.250086635531182 
1095	 0.249039745382338 
1096	 0.24843846850422 
1097	 0.247651705830483 
1098	 0.248607127375782 
1099	 0.248241590116029 
1100	 0.251589653474097 
1101	 0.257980330849998 
1102	 0.25851977665139 
1103	 0.257493303867215 
1104	 0.255623472486801 
1105	 0.248072391984072 
1106	 0.244284394867299 
1107	 0.246148313839905 
1108	 0.246922823073988 
1109	 0.249827034103161 
1110	 0.249745206876816 
1111	 0.245140472766603 
1112	 0.242726890015218 
1113	 0.239592146345659 
1114	 0.232599284320074 
1115	 0.230936049743199 
1116	 0.231818546897363 
1117	 0.223126717481704 
1118	 0.20563033497825 
1119	 0.187120020089592 
1120	 0.159003846314714 
1121	 0.120265605408039 
1122	 0.120737545971656 
1123	 0.121609738457729 
1124	 0.118459314551813 
1125	 0.15836926158037 
1126	 0.187334922915391 
1127	 0.179902514386234 
1128	 0.122032389574663 
1129	 0.10716641142023 
1130	 9.00059740267142E-02 
1131	 7.31950965047444E-02 
1132	 0.075718596018156 
1133	 0.150349512089815 
1134	 0.198856211808771 
1135	 0.221404531502628 
1136	 0.246455057209636 
1137	 0.241418064423343 
1138	 0.225435450932944 
1139	 0.218351153015605 
1140	 0.218336261417312 
1141	 0.219440961420776 
1142	 0.219056557635499 
1143	 0.228558100138726 
1144	 0.217734845499251 
1145	 0.171047317394091 
1146	 0.164867891527855 
1147	 0.166604096576074 
1148	 0.18776213252911 
1149	 0.204725780642752 
1150	 0.22446376266112 
1151	 0.21693883481299 
1152	 0.173766436566124 
1153	 0.176491121905534 
1154	 0.208172387699267 
1155	 0.217159755054263 
1156	 0.229513959124873 
1157	 0.237201357426907 
1158	 0.232401312608033 
1159	 0.234382765830057 
1160	 0.240748433623878 
1161	 0.243187758506748 
1162	 0.24399980257479 
1163	 0.245335645369173 
1164	 0.246753353828239 
1165	 0.246871769554147 
1166	 0.245511769920673 
1167	 0.246234075543243 
1168	 0.248023555106136 
1169	 0.249070954960473 
1170	 0.252761190798343 
1171	 0.255284226542185 
1172	 0.252483043586704 
1173	 0.249775382787913 
1174	 0.249244783727233 
1175	 0.248582071973567 
1176	 0.249044653774531 
1177	 0.252959888876483 
1178	 0.254225640863846 
1179	 0.254108298668197 
1180	 0.25435102981372 
1181	 0.253691333845751 
1182	 0.254448581020632 
1183	 0.256786385471395 
1184	 0.257325152861087 
1185	 0.257319939068936 
1186	 0.254794399496462 
1187	 0.25079350472537 
1188	 0.248567625168711 
1189	 0.247629899848535 
1190	 0.248363696337254 
1191	 0.251000389640468 
1192	 0.252851728740291 
1193	 0.253602010375228 
1194	 0.254912837830633 
1195	 0.254686835497289 
1196	 0.251607564825796 
1197	 0.25157955625065 
1198	 0.252075229622762 
1199	 0.253090928204238 
1200	 0.257080356567971 
1201	 0.257555649821528 
1202	 0.255859271532738 
1203	 0.25580339666222 
1204	 0.254299119597304 
1205	 0.253867340441899 
1206	 0.255353919593632 
1207	 0.256681541346871 
1208	 0.256708393228863 
1209	 0.256901594131936 
1210	 0.257193445672578 
1211	 0.256621504438755 
1212	 0.257445157142921 
1213	 0.2588427679226 
1214	 0.260245784019008 
1215	 0.263789373830421 
1216	 0.264746409903002 
1217	 0.264221988700305 
1218	 0.264295578663164 
1219	 0.262746179914244 
1220	 0.262323571316215 
1221	 0.262767880619804 
1222	 0.26307178967123 
1223	 0.263681788137205 
1224	 0.265298599383185 
1225	 0.266223361501232 
1226	 0.266638080259105 
1227	 0.266138343416663 
1228	 0.265593962032639 
1229	 0.265685143547477 
1230	 0.265940182983593 
1231	 0.265638297958923 
1232	 0.266074595465621 
1233	 0.265429172231064 
1234	 0.262544677617855 
1235	 0.262512564875994 
1236	 0.263797643324737 
1237	 0.264299642124761 
1238	 0.266493708161025 
1239	 0.267148089392347 
1240	 0.265883217631034 
1241	 0.266337061622192 
1242	 0.267372960752997 
1243	 0.268122809318042 
1244	 0.269261083240558 
1245	 0.269232967068702 
1246	 0.269174999090856 
1247	 0.268602564746966 
1248	 0.268454107700706 
1249	 0.269347675910266 
1250	 0.269312795958365 
1251	 0.268210024867425 
1252	 0.268093854673951 
1253	 0.268243972837667 
1254	 0.268252286618904 
1255	 0.268574966330576 
1256	 0.269158115016379 
1257	 0.26989279335603 
1258	 0.270374235597692 
1259	 0.271261679338866 
1260	 0.271417893320107 
1261	 0.270828432889637 
1262	 0.270786237199468 
1263	 0.270276343929908 
1264	 0.270960446791127 
1265	 0.270850574123716 
1266	 0.269634726896682 
1267	 0.269249441518152 
1268	 0.267262956332819 
1269	 0.267549356023239 
1270	 0.270385282331432 
1271	 0.270247920635382 
1272	 0.268688461661306 
1273	 0.269527872280175 
1274	 0.269694535047651 
1275	 0.270703805763901 
1276	 0.275216307698311 
1277	 0.276391082527984 
1278	 0.2754158784519 
1279	 0.274914315299708 
1280	 0.273238160622832 
1281	 0.272463218358367 
1282	 0.271687597552783 
1283	 0.271704971468582 
1284	 0.272359488611505 
1285	 0.273593097219221 
1286	 0.2731132265849 
1287	 0.273800231933764 
1288	 0.275911971118696 
1289	 0.275475849641872 
1290	 0.275510858782614 
1291	 0.275999746233098 
1292	 0.27629954469895 
1293	 0.275657123046276 
1294	 0.275617746435824 
1295	 0.276427795320893 
1296	 0.276794098582477 
1297	 0.276408287867966 
1298	 0.276307436822096 
1299	 0.276882010466029 
1300	 0.277072640515259 
1301	 0.276499948352778 
1302	 0.277004324166205 
1303	 0.278431087395745 
1304	 0.278925623107651 
1305	 0.279971883287708 
1306	 0.279734904695778 
1307	 0.276351206967168 
1308	 0.27704407993287 
1309	 0.273834021538943 
1310	 0.271896727525416 
1311	 0.27157709166586 
1312	 0.269034840127188 
1313	 0.268447022097085 
1314	 0.269302840053627 
1315	 0.269993815573328 
1316	 0.272252084784121 
1317	 0.272031757785149 
1318	 0.270920007400519 
1319	 0.270677113525845 
1320	 0.269196248888835 
1321	 0.267122588930144 
1322	 0.265870462806553 
1323	 0.264330786690703 
1324	 0.258360450748772 
1325	 0.257068442922169 
1326	 0.261811086325492 
1327	 0.262396942193744 
1328	 0.26249224614141 
1329	 0.264697258603433 
1330	 0.265134974293751 
1331	 0.266137581236576 
1332	 0.271770198776366 
1333	 0.274768267278655 
1334	 0.284268684432457 
1335	 0.287085982632138 
1336	 0.28366698667059 
1337	 0.277765322000271 
1338	 0.272060517472731 
1339	 0.252697823756856 
1340	 0.246894257295517 
1341	 0.251524268758558 
1342	 0.249109091151214 
1343	 0.250438641162741 
1344	 0.241583413661349 
1345	 0.216686753060458 
1346	 0.197798489452662 
1347	 0.164765108896992 
1348	 0.134030558810247 
1349	 0.11144035730308 
1350	 7.29616834495925E-02 
1351	 4.56025827614956E-02 
1352	-9.96930914685301E-02 
1353	-0.608324736336737 
1354	-1.87677646825773 
1355	-1.03715391565689 
1356	-1.2783984380715 
1357	-0.863912464210269 
1358	-0.829653994110724 
1359	-1.34350065237957 
1360	-2.83100687693855 
1361	-11.1975876502238 
1362	 46.2956646511945 
1363	 2.56529344728951 
1364	 0.953512161920559 
1365	 0.920523655415214 
1366	 0.886713962295137 
1367	 0.898697437487134 
1368	 1.43532859736723 
1369	 1.70000698667055 
1370	 1.79268188468769 
1371	 1.38818103072037 
1372	 0.722484588490996 
1373	 0.644662931429063 
1374	 0.400669666962534 
1375	 0.318106235593205 
1376	 4.18709575540476 
1377	-2.78783425948917 
1378	 11.3975375717444 
1379	 8.87388338060618 
1380	 20.4021975196902 
1381	-24.2428970478662 
1382	-6.09975197518988 
1383	-3.59129069637675 
1384	-0.701438160000747 
1385	-0.568742148196061 
1386	-0.976076260896099 
1387	-2.46355372218876 
1388	 9.65798850711308 
1389	 2.72006627189041 
1390	 1.95005470605931 
1391	 1.30126203260741 
1392	 1.10368631880862 
1393	 1.25576202097057 
1394	 1.06182477349408 
1395	 0.650996449942121 
1396	 0.556818602590863 
1397	 0.524133509720454 
1398	 0.683271868625306 
1399	 1.20763953749221 
1400	 1.52379906469479 
1401	 3.3147415671978 
1402	 5.25510316066951 
1403	 3.03328580058552 
1404	 3.47869255569482 
1405	 4.62955438985397 
1406	 3.53399407183188 
1407	 2.23137274616666 
1408	 2.33762587261952 
1409	 2.88101107736201 
1410	 2.61795203473203 
1411	 2.85623965708895 
1412	 3.48947253641302 
1413	 1.39416051162341 
1414	 1.31319541322897 
1415	 21.9814429879951 
1416	-18.3830042036325 
1417	 9.63693571716281 
1418	 31.2833854937374 
1419	-5.55460229161474 
1420	-14.1611296564496 
1421	-39.5094329847581 
1422	-4.37570431538836 
1423	-11.0256970948208 
1424	 0.394785905925679 
1425	 0.41147631381945 
1426	 1.07828660048776 
1427	 1.29429186483925 
1428	 11.9349821570887 
1429	 18.0685462323938 
1430	 0.585926515878941 
1431	-0.386612658242505 
1432	-4.02900170063527E-03 
1433	-0.916930046797663 
1434	-476.037575202186 
1435	 3.51370355274423 
1436	 2.05919187499553 
1437	 1.9156680334486 
1438	 1.00691847459429 
1439	 0.320196362268029 
1440	-17.9067051726083 
1441	-13.1625115778877 
1442	-2.14218977628922 
1443	-1.07546882207442 
1444	-6.80215959785797E-02 
1445	 0.134362556841123 
1446	 0.368119471129518 
1447	 0.355103764100609 
1448	 0.165044422433536 
1449	 0.13044814965709 
1450	 4.69388306617956E-02 
1451	 5.66454112430031E-02 
1452	 0.130635989674817 
1453	 0.187779800246404 
1454	 0.287258719659899 
1455	 0.291206674718458 
1456	 0.319657706389555 
1457	 0.346713364731323 
1458	 0.325102585751867 
1459	 0.2803123648366 
1460	 0.229912717748247 
1461	 0.124055890731868 
1462	 0.107584778326149 
1463	 0.123696610729034 
1464	 0.11405257093025 
1465	 0.149017743665036 
1466	 0.161957496369759 
1467	 0.137549096292956 
1468	 0.114575332820815 
1469	 9.87528964218595E-02 
1470	 0.113460974972514 
1471	 0.110114881595134 
1472	 0.124418178667761 
1473	 0.235301569361304 
1474	 0.243083890532117 
1475	 0.181831160672703 
1476	 0.152795902700008 
1477	 0.104165577672869 
1478	 0.089136459048678 
1479	 5.96675185014733E-02 
1480	 8.25428646605369E-02 
1481	 0.14582858962751 
1482	 0.180067416693066 
1483	 0.249065216531396 
1484	 0.269463769696681 
1485	 0.243417842458874 
1486	 0.243698392479959 
1487	 0.238516029240918 
1488	 0.240366288706422 
1489	 0.251927839412273 
1490	 0.260181401317371 
1491	 0.271700280343083 
1492	 0.272644213891892 
1493	 0.267700969245599 
1494	 0.26698951946933 
1495	 0.261154565890808 
1496	 0.260722311082744 
1497	 0.268261884407852 
1498	 0.270653346420312 
1499	 0.277104998056572 
1500	 0.273110928643117 
1501	 0.260965580701595 
1502	 0.253821831979186 
1503	 0.256232188705026 
1504	 0.259458817793206 
1505	 0.26062190203421 
1506	 0.271719366635204 
1507	 0.267959595042885 
1508	 0.252551289249569 
1509	 0.249222405874902 
1510	 0.246493425747341 
1511	 0.245895389606081 
1512	 0.250165827315606 
1513	 0.250474313428297 
1514	 0.250175762212565 
1515	 0.248696014924983 
1516	 0.244816555940681 
1517	 0.245058427840822 
1518	 0.244768070449629 
1519	 0.247937524006387 
1520	 0.256573900459794 
1521	 0.260171904300481 
1522	 0.262289947067841 
1523	 0.265846730661677 
1524	 0.270225460282971 
1525	 0.269707167018884 
1526	 0.268594632125233 
1527	 0.266645957239962 
1528	 0.257127715361629 
1529	 0.256956105327272 
1530	 0.263216100992565 
1531	 0.265221816584286 
1532	 0.270060643077132 
1533	 0.271496049256368 
1534	 0.266972624891553 
1535	 0.268041419096068 
1536	 0.272558447837792 
1537	 0.274555243384263 
1538	 0.278116593848638 
1539	 0.279883932013471 
1540	 0.27801305288669 
1541	 0.278570460641846 
1542	 0.280726974264889 
1543	 0.28198253509725 
1544	 0.285086952297024 
1545	 0.284927021490692 
1546	 0.282331846690399 
1547	 0.28048864952615 
1548	 0.276307070220095 
1549	 0.273979066277045 
1550	 0.272248211444924 
1551	 0.271054033305938 
1552	 0.269789697788917 
1553	 0.270494513427393 
1554	 0.273767274439329 
1555	 0.276245843574208 
1556	 0.280787152356628 
1557	 0.282866982780806 
1558	 0.284053723206286 
1559	 0.283642215583515 
1560	 0.280584299457028 
1561	 0.278635764766982 
1562	 0.276242573180994 
1563	 0.272592825645038 
1564	 0.271127931304709 
1565	 0.268841919835319 
1566	 0.269050998340462 
1567	 0.26998248772577 
1568	 0.274520699796042 
1569	 0.277547284000418 
1570	 0.275632758322089 
1571	 0.274908509461331 
1572	 0.272930949812475 
1573	 0.271577951860447 
1574	 0.275360519030841 
1575	 0.279917743871535 
1576	 0.280946849781811 
1577	 0.280660424581921 
1578	 0.278250488687993 
1579	 0.274229564399163 
1580	 0.270617943782113 
1581	 0.269107325699321 
1582	 0.270477578037507 
1583	 0.273599090407834 
1584	 0.276486584186369 
1585	 0.276782163517405 
1586	 0.277718268243657 
1587	 0.276311807362918 
1588	 0.276567771495674 
1589	 0.278918837338881 
1590	 0.279683913327729 
1591	 0.279203382520337 
1592	 0.278870494059076 
1593	 0.277408891904176 
1594	 0.278485057762899 
1595	 0.281549978381047 
1596	 0.281943270508769 
1597	 0.282401991261308 
1598	 0.283273256695333 
1599	 0.282518971306947 
1600	 0.282837443334492 
1601	 0.285517245300935 
1602	 0.285250964194877 
1603	 0.282202775132703 
1604	 0.280895860644532 
1605	 0.28095299526293 
1606	 0.278450246607226 
1607	 0.27390570226178 
1608	 0.27263100240633 
1609	 0.269976978439703 
1610	 0.270710329068719 
1611	 0.276419720511212 
1612	 0.27844560762612 
1613	 0.280584896981565 
1614	 0.280764234746798 
1615	 0.278571905047572 
1616	 0.27874967132266 
1617	 0.278653408513109 
1618	 0.278585710773119 
1619	 0.278986435657677 
1620	 0.281156687750992 
1621	 0.284537403646978 
1622	 0.286314811876618 
1623	 0.290112036579176 
1624	 0.290505957359598 
1625	 0.286321510018676 
1626	 0.28627554988025 
1627	 0.287680921558641 
1628	 0.287449130336733 
1629	 0.288914774727591 
1630	 0.287712322887303 
1631	 0.284163439044328 
1632	 0.281928251100562 
1633	 0.277558507499518 
1634	 0.277576498624679 
1635	 0.280427466310236 
1636	 0.280904718373797 
1637	 0.282650550818153 
1638	 0.284636560165 
1639	 0.28512482940513 
1640	 0.285927796567143 
1641	 0.289517306613319 
1642	 0.290244977817316 
1643	 0.28894724329622 
1644	 0.287549040525986 
1645	 0.284992367499804 
1646	 0.282989861010455 
1647	 0.279317631294095 
1648	 0.278364467837346 
1649	 0.278440781058428 
1650	 0.279846007337706 
1651	 0.283371964445335 
1652	 0.284952294571274 
1653	 0.288710501604333 
1654	 0.288904220671617 
1655	 0.286512418444965 
1656	 0.285353512701643 
1657	 0.283228866881918 
1658	 0.279783885088902 
1659	 0.274123889398474 
1660	 0.272672198425519 
1661	 0.270854751594652 
1662	 0.272047723943633 
1663	 0.277778888527914 
1664	 0.281751542759449 
1665	 0.286597453414637 
1666	 0.289473456033812 
1667	 0.288512313501639 
1668	 0.285411400298408 
1669	 0.27946444895025 
1670	 0.276456440335683 
1671	 0.276215781689542 
1672	 0.276872267691085 
1673	 0.277959012781528 
1674	 0.277640253992453 
1675	 0.278179549588686 
1676	 0.276023156161871 
1677	 0.273173222555124 
1678	 0.272075396787449 
1679	 0.271752792219159 
1680	 0.276087787114459 
1681	 0.282366888219359 
1682	 0.287972009330339 
1683	 0.29309112513826 
1684	 0.295655567235663 
1685	 0.297175515321446 
1686	 0.296810145908378 
1687	 0.295077407428128 
1688	 0.295039809749106 
1689	 0.290983654718444 
1690	 0.288600415964568 
1691	 0.288345831348771 
1692	 0.286113403425521 
1693	 0.286880821257708 
1694	 0.286513856740288 
1695	 0.286509626269814 
1696	 0.284678432972907 
1697	 0.282294031922157 
1698	 0.282529166883604 
1699	 0.279562094318532 
1700	 0.277113739317702 
1701	 0.276744769494704 
1702	 0.282877622121779 
1703	 0.289732577900833 
1704	 0.292659814674779 
1705	 0.295683899101276 
1706	 0.288041612321161 
1707	 0.278358609326797 
1708	 0.27357077522476 
1709	 0.270150291030045 
1710	 0.264994825626325 
1711	 0.266566479662616 
1712	 0.275982956344386 
1713	 0.279672995753811 
1714	 0.289820947356493 
1715	 0.29270453843267 
1716	 0.286076280841145 
1717	 0.285606397872246 
1718	 0.280586778419577 
1719	 0.279427651307979 
1720	 0.280526086246138 
1721	 0.276336450507944 
1722	 0.26962745549409 
1723	 0.266347717845926 
1724	 0.261615986589104 
1725	 0.260612541681581 
1726	 0.265723411359382 
1727	 0.269516048818045 
1728	 0.274051737419823 
1729	 0.272423727760071 
1730	 0.266926312267813 
1731	 0.267724525532618 
1732	 0.267392016226537 
1733	 0.269961624373967 
1734	 0.278464369327487 
1735	 0.281844916932024 
1736	 0.284681216681332 
1737	 0.284959651351835 
1738	 0.283887972168701 
1739	 0.283145948178665 
1740	 0.272358370072807 
1741	 0.262671946987862 
1742	 0.264701583550877 
1743	 0.263688908835369 
1744	 0.258837437999999 
1745	 0.256995994997254 
1746	 0.258297925449077 
1747	 0.257091739975339 
1748	 0.265888569375759 
1749	 0.276745578891822 
1750	 0.281113628607111 
1751	 0.29176666768277 
1752	 0.29652115410542 
1753	 0.293963149813906 
1754	 0.296209656625755 
1755	 0.298692514445267 
1756	 0.300438998427114 
1757	 0.304874400389532 
1758	 0.300752676321035 
1759	 0.293012450622238 
1760	 0.2968804729834 
1761	 0.29307440229453 
1762	 0.281798741504273 
1763	 0.28023022683851 
1764	 0.268069996999844 
1765	 0.262839531061742 
1766	 0.281761107910897 
1767	 0.292612008795089 
1768	 0.297813446760369 
1769	 0.300371986500325 
1770	 0.284992518000797 
1771	 0.266768801865856 
1772	 0.263147707795887 
1773	 0.264120885196793 
1774	 0.276555700039732 
1775	 0.298485027620413 
1776	 0.29798910950467 
1777	 0.29311177281717 
1778	 0.290730058164258 
1779	 0.306033345450926 
1780	 0.260754227379929 
1781	 0.230268479301758 
1782	 0.189838460071812 
1783	 0.130528908860629 
1784	 0.174341453913571 
1785	 0.240081344796629 
1786	 0.26224198286128 
1787	 0.271400443869598 
1788	 0.261218923355233 
1789	 0.193947075024424 
1790	 0.168062395845357 
1791	 0.237611464084377 
1792	 0.243552823136126 
1793	 0.1949546406647 
1794	 0.200771475964698 
1795	 0.291710564133198 
1796	 0.314007336376862 
1797	 0.41878761935678 
1798	 0.647687631559174 
1799	 0.139102219609117 
1800	-0.517504175723998 
1801	 0.796196587214775 
1802	 0.776677138701506 
1803	 0.689396215937686 
1804	 0.706312380812894 
1805	 0.727829032921402 
1806	 0.613402337540128 
1807	 0.663064371045694 
1808	 0.959094640115372 
1809	 1.11827048231951 
1810	 1.35911254311955 
1811	 1.41526196694997 
1812	 1.19969733307155 
1813	 1.16921722036677 
1814	 1.02839822707303 
1815	 0.984764613279213 
1816	 1.06739148707656 
1817	 1.18570300995112 
1818	 1.13216493759278 
1819	 1.08137357459941 
1820	 0.967904835346548 
1821	 0.706598323745539 
1822	 0.625487789217936 
1823	 0.525268040865247 
1824	 0.510792330116926 
1825	 0.580241667130638 
1826	 0.71620223843063 
1827	 0.834426557294073 
1828	 1.11117124567907 
1829	 1.2562068713337 
1830	 1.29293133750123 
1831	 1.35850343963615 
1832	 1.33330189436567 
1833	 1.30815144020629 
1834	 1.20003151135487 
1835	 1.18962001619723 
1836	 1.20614092429829 
1837	 1.22629684222597 
1838	 1.21834004989859 
1839	 1.31860277539013 
1840	 1.24283730699854 
1841	 0.951956441417714 
1842	 0.864774145704614 
1843	 0.806596364121135 
1844	 0.774037847817102 
1845	 0.818484095087475 
1846	 0.907646604559149 
1847	 0.953786057945531 
1848	 1.0014464138065 
1849	 1.02847429124788 
1850	 1.00489496880454 
1851	 1.1158010652227 
1852	 1.37342006975939 
1853	 1.51878036539381 
1854	 2.16921763510779 
1855	 2.40118974053768 
1856	 2.1753348036733 
1857	 1.41603485277749 
1858	 1.10004342757005 
1859	 0.833836933063514 
1860	 0.669042325412295 
1861	 0.453953577677657 
1862	 0.449174247663709 
1863	 0.567077374485209 
1864	 0.642729686071155 
1865	 1.09486413675786 
1866	 1.37596292340099 
1867	 1.45505241898863 
1868	 1.04362128683231 
1869	 0.989163305897221 
1870	 0.805960209098312 
1871	 0.84008016259487 
1872	 1.16292213535269 
1873	 1.28997191500062 
1874	 1.48295362275911 
1875	 1.56475339389719 
1876	 1.55435303728471 
1877	 1.31736184352124 
1878	 1.16954366082702 
1879	 1.0215648099144 
1880	 0.903297191524531 
1881	 0.747485103583375 
1882	 0.704296554076658 
1883	 0.680141211244802 
1884	 0.667077828007587 
1885	 0.693287612831231 
1886	 0.776693191899154 
1887	 0.910238444470396 
1888	 1.06909641834321 
1889	 1.21357377050396 
1890	 1.53286414640957 
1891	 1.60078189285555 
1892	 1.52651747671732 
1893	 1.40672130131242 
1894	 1.10178988641334 
1895	 0.998968901570119 
1896	 0.84346693527668 
1897	 0.817330884199648 
1898	 0.965618696443443 
1899	 1.07084458597984 
1900	 1.15393704244653 
1901	 1.27753352389864 
1902	 1.26366241542959 
1903	 1.14921247968977 
1904	 1.11613075076925 
1905	 0.993768868070835 
1906	 0.978149730259009 
1907	 1.05702055168831 
1908	 1.21827294577947 
1909	 1.75704206469091 
1910	 1.79491006417345 
1911	 1.89712374779273 
1912	 2.11535408669381 
1913	 2.04415355105041 
1914	 1.52870698159376 
1915	 1.39972995701906 
1916	 1.35323739901336 
1917	 1.324694464795 
1918	 1.4202725572609 
1919	 1.3344045376029 
1920	 1.11320805387979 
1921	 1.08750357335957 
1922	 1.04505321059772 
1923	 0.983782201191752 
1924	 0.961912618093582 
1925	 0.968813567816627 
1926	 0.959708350314838 
1927	 0.900804198355199 
1928	 0.914414259414494 
1929	 0.935246863606489 
1930	 1.1959456581656 
1931	 1.29530198767949 
1932	 1.57306696673988 
1933	 1.49118730320509 
1934	 1.32461086079038 
1935	 1.3130367425105 
1936	 1.20514380541045 
1937	 1.1871021621873 
1938	 1.41133133571781 
1939	 1.50134801954271 
1940	 1.444977607064 
1941	 1.74079078820462 
1942	 1.71188506192807 
1943	 1.28284204735464 
1944	 1.10082755798671 
1945	 1.03044362596384 
1946	 1.0314048373657 
1947	 1.26543749914115 
1948	 1.47181283923987 
1949	 1.92811427550711 
1950	 2.07784551788866 
1951	 1.82370457364742 
1952	 1.84464244444502 
1953	 2.08448490235614 
1954	 1.8443323844034 
1955	 1.56528879215598 
1956	 1.64977459939409 
1957	 1.5848519536341 
1958	 1.08767165818219 
1959	 0.953839698382832 
1960	 0.962172761497659 
1961	 0.888452570715576 
1962	 0.807795859586324 
1963	 0.831237417031272 
1964	 0.969256550738691 
1965	 0.88615185004766 
1966	 0.82771378943758 
1967	 0.813323508892698 
1968	 0.746230671958842 
1969	 0.772105504404704 
1970	 0.818783629737959 
1971	 1.02958399780923 
1972	 1.06918477867674 
1973	 1.04287055223611 
1974	 0.991202721778585 
1975	 0.84030937916331 
1976	 0.783238331586485 
1977	 0.721232042802939 
1978	 0.694202427232741 
1979	 0.696998198516045 
1980	 0.725175022483748 
1981	 0.734033699049284 
1982	 0.729442611702272 
1983	 0.695793266670321 
1984	 0.676024435773866 
1985	 0.584646378824415 
1986	 0.417132320431028 
1987	 0.355065341476088 
1988	 0.229789606938313 
1989	 0.262203003773984 
1990	 0.407200487293403 
1991	 0.536229205199888 
1992	 0.639827156537784 
1993	 0.631238298512833 
1994	 0.541249410669348 
1995	 0.504422755929376 
1996	 0.509185723160968 
1997	 0.541859752169458 
1998	 0.631360311601512 
1999	 0.893295639245088 
2000	 0.982256195707359 
2001	 0.948084913158126 
2002	 1.10810459164659 
2003	 1.02368621506743 
2004	 0.982896293216938 
2005	 1.12393734871804 
2006	 1.21030188248524 
2007	 1.07947367348059 
2008	 1.10061145561465 
2009	 1.0885582560606 
2010	 1.006100998962 
2011	 0.942045913150258 
2012	 0.886694376128939 
2013	 0.814861760627458 
2014	 0.675114390117726 
2015	 0.629510791332869 
2016	 0.600890499788111 
2017	 0.670804225551028 
2018	 0.771696136650463 
2019	 0.806557563998493 
2020	 0.830261940036835 
2021	 0.821711138647248 
2022	 0.747032879044504 
2023	 0.670035524070762 
2024	 0.627824400679477 
2025	 0.59981100224657 
2026	 0.589683075537443 
2027	 0.598446871873548 
2028	 0.602741940060711 
2029	 0.585676203892316 
2030	 0.520680019783912 
2031	 0.493129065577633 
2032	 0.458045021081423 
2033	 0.407816619010958 
2034	 0.438268551596908 
2035	 0.463970799563101 
2036	 0.447301323928237 
2037	 0.44326047331439 
2038	 0.469988559991078 
2039	 0.450901666299582 
2040	 0.368839630633868 
2041	 0.368611085535388 
2042	 0.403874668686722 
2043	 0.419557576086344 
2044	 0.462069134633627 
2045	 0.53016974277775 
2046	 0.524455775209126 
2047	 0.523466810745704 
2048	 0.540634313397149 
2049	 0.570342162818568 
2050	 0.575714280173184 
2051	 0.570836706943079 
2052	 0.566978556726887 
2053	 0.51275051286113 
2054	 0.484528935982223 
2055	 0.477843030840265 
2056	 0.484089984806621 
2057	 0.410042354958625 
2058	 0.395366868066033 
2059	 0.418886161407532 
2060	 0.421025601638067 
2061	 0.499915308522648 
2062	 0.592139403362892 
2063	 0.635052824306353 
2064	 0.639931794095039 
2065	 0.561190595647624 
2066	 0.556726377360817 
2067	 0.542976661763871 
2068	 0.530899886131781 
2069	 0.515872238575691 
2070	 0.529143019881531 
2071	 0.470096982033324 
2072	 0.44864993722276 
2073	 0.455612031673536 
2074	 0.481551823750854 
2075	 0.489147322399545 
2076	 0.501607781421566 
2077	 0.476475081649339 
2078	 0.43239904972967 
2079	 0.488376594150493 
2080	 0.484213197758925 
2081	 0.461837767542637 
2082	 0.450174274485524 
2083	 0.399528706705965 
2084	 0.378588143257942 
2085	 0.375207235449545 
2086	 0.3936031618031 
2087	 0.392172307769929 
2088	 0.424864582370764 
2089	 0.427438983039476 
2090	 0.419571744671736 
2091	 0.4301149790931 
2092	 0.441067184022832 
2093	 0.432774233639524 
2094	 0.430954090612753 
2095	 0.422646298537276 
2096	 0.408006908455877 
2097	 0.419021405383498 
2098	 0.412684201191714 
2099	 0.424479284851123 
2100	 0.458235071337705 
2101	 0.476396611812615 
2102	 0.488069725952576 
2103	 0.526534329637312 
2104	 0.528832424852346 
2105	 0.524298559437458 
2106	 0.511766930244873 
2107	 0.470048955231364 
2108	 0.457959770773698 
2109	 0.442976543776051 
2110	 0.429846825594599 
2111	 0.43478121940521 
2112	 0.438690830939594 
2113	 0.430488374059177 
2114	 0.434554978946142 
2115	 0.452713673902799 
2116	 0.465524508820834 
2117	 0.498027170215708 
2118	 0.506218969323193 
2119	 0.500531509829687 
2120	 0.478275123866469 
2121	 0.486943481906388 
2122	 0.471749485154365 
2123	 0.471939463841054 
2124	 0.489769609671199 
2125	 0.491420557702564 
2126	 0.486086405556146 
2127	 0.46872861216199 
2128	 0.460946144026594 
2129	 0.434371822603494 
2130	 0.399349045674465 
2131	 0.403778928956081 
2132	 0.425192275807554 
2133	 0.433687433058261 
2134	 0.465207395353228 
2135	 0.46615458415898 
2136	 0.452420821762525 
2137	 0.400741229723684 
2138	 0.357527237151834 
2139	 0.372763518993058 
2140	 0.388468140338912 
2141	 0.401156997351383 
2142	 0.43307084898932 
2143	 0.419397588701314 
2144	 0.382893796262954 
2145	 0.384547655444378 
2146	 0.395667863007163 
2147	 0.412052682395508 
2148	 0.457969292434638 
2149	 0.511897374805229 
2150	 0.539718445207697 
2151	 0.550825140516982 
2152	 0.554110230977784 
2153	 0.538671112775017 
2154	 0.519707036355143 
2155	 0.479851760097795 
2156	 0.484712027105845 
2157	 0.478338740292664 
2158	 0.455508541394091 
2159	 0.485197388046497 
2160	 0.494008202322311 
2161	 0.482417338402651 
2162	 0.497339146188158 
2163	 0.471196923646617 
2164	 0.452024364431249 
2165	 0.433714558355934 
2166	 0.389163045130449 
2167	 0.353564490465028 
2168	 0.336811195117788 
2169	 0.36831932681806 
2170	 0.409202855734179 
2171	 0.437440794451169 
2172	 0.496131941627133 
2173	 0.505780954015743 
2174	 0.471638847096251 
2175	 0.460937753675319 
2176	 0.432318643022191 
2177	 0.431415414086668 
2178	 0.437786581468476 
2179	 0.428788536163428 
2180	 0.442571776147463 
2181	 0.457440394690418 
2182	 0.479610154334483 
2183	 0.496250400793591 
2184	 0.484012202582849 
2185	 0.468493447186292 
2186	 0.472886595816393 
2187	 0.489468793765069 
2188	 0.499235126641396 
2189	 0.514201449616409 
2190	 0.501775861824118 
2191	 0.469511450853564 
2192	 0.458096940404611 
2193	 0.443128861402445 
2194	 0.440543072977194 
2195	 0.470470122264625 
2196	 0.490111987085707 
2197	 0.513931439614243 
2198	 0.509783023674755 
2199	 0.527064436873102 
2200	 0.502341603230303 
2201	 0.44731019484435 
2202	 0.408158323052226 
2203	 0.339770906362839 
2204	 0.305019451943244 
2205	 0.33153013937439 
2206	 0.374564155242859 
2207	 0.425278614652174 
2208	 0.467103004157477 
2209	 0.474770897743444 
2210	 0.449162267658311 
2211	 0.421707332388612 
2212	 0.349194188252089 
2213	 0.320601480043519 
2214	 0.320455883868528 
2215	 0.336893986063015 
2216	 0.424675416439635 
2217	 0.485081353273912 
2218	 0.566941850095914 
2219	 0.605179968791556 
2220	 0.592975138938498 
2221	 0.595141902399098 
2222	 0.580788384894589 
2223	 0.567021497300389 
2224	 0.534018165052546 
2225	 0.458431526896583 
2226	 0.438834161128903 
2227	 0.392517796855821 
2228	 0.396844237731591 
2229	 0.490727124822243 
2230	 0.513292341097077 
2231	 0.523990398856553 
2232	 0.532621543063452 
2233	 0.508921238336633 
2234	 0.482791763332859 
2235	 0.471246822453533 
2236	 0.5232374417563 
2237	 0.519927170786501 
2238	 0.541372680261511 
2239	 0.613411713059461 
2240	 0.538116514957925 
2241	 0.501267279609958 
2242	 0.493791781685977 
2243	 0.469554747182045 
2244	 0.462521661693825 
2245	 0.5330457419749 
2246	 0.537169340801023 
2247	 0.502518265113734 
2248	 0.487190447143552 
2249	 0.420322221756367 
2250	 0.424431594570582 
2251	 0.479744067213668 
2252	 0.534254072054305 
2253	 0.566331942918747 
2254	 0.60949476695649 
2255	 0.561236552648303 
2256	 0.499081371336649 
2257	 0.477106481404966 
2258	 0.46343463517272 
2259	 0.451914200820276 
2260	 0.450397656219924 
2261	 0.466125373583516 
2262	 0.50727831977445 
2263	 0.627990898519014 
2264	 0.71937495499868 
2265	 0.715809231130556 
2266	 0.723255891355817 
2267	 0.670653929723409 
2268	 0.610287347712402 
2269	 0.574830588256852 
2270	 0.509074111659628 
2271	 0.483432114067059 
2272	 0.472644099287867 
2273	 0.441416553051882 
2274	 0.444768149738814 
2275	 0.417990225396869 
2276	 0.326719390397473 
2277	 0.309348877942628 
2278	 0.318022906282715 
2279	 0.329133357609453 
2280	 0.386784773089003 
2281	 0.397432185891477 
2282	 0.387050254425542 
2283	 0.40490794004169 
2284	 0.399305808187772 
2285	 0.464272532285456 
2286	 0.571178422778018 
2287	 0.594359700808844 
2288	 0.631453668332093 
2289	 0.62344801357734 
2290	 0.557240248848817 
2291	 0.555312916220592 
2292	 0.591997234044743 
2293	 0.601062390465889 
2294	 0.605367105677348 
2295	 0.582142311274031 
2296	 0.51225990920482 
2297	 0.470007803854221 
2298	 0.446288287625313 
2299	 0.483517297768444 
2300	 0.529312648263519 
2301	 0.56871185504848 
2302	 0.604383473110761 
2303	 0.558545905544474 
2304	 0.570524586715694 
2305	 0.548064136818731 
2306	 0.461754146018897 
2307	 0.479215461242622 
2308	 0.501858421205271 
2309	 0.523371982232957 
2310	 0.577061635150206 
2311	 0.742469856937549 
2312	 0.782118412270979 
2313	 0.720061919928849 
2314	 0.702661504235072 
2315	 0.679995242189696 
2316	 0.645370382071753 
2317	 0.618759513011759 
2318	 0.588522116974578 
2319	 0.530770273317742 
2320	 0.484978972745905 
2321	 0.422742000901225 
2322	 0.391702753976631 
2323	 0.347208446667489 
2324	 0.362830837540419 
2325	 0.490023692335424 
2326	 0.527821453755617 
2327	 0.571637540734156 
2328	 0.561259700526644 
2329	 0.450773716748166 
2330	 0.402793200631878 
2331	 0.313546437450138 
2332	 0.305947758427701 
2333	 0.363855866777549 
2334	 0.412784726219546 
2335	 0.524086016051881 
2336	 0.769465931082398 
2337	 0.799039062308997 
2338	 0.800573550147156 
2339	 0.724062344900072 
2340	 0.667561130721475 
2341	 0.68921508549379 
2342	 0.770041247548548 
2343	 0.866897109773067 
2344	 0.903703006790287 
2345	 0.990491558549801 
2346	 0.942481622689398 
2347	 0.822084496960797 
2348	 0.798605763686246 
2349	 0.791776600791412 
2350	 0.843152884110407 
2351	 0.915967864046841 
2352	 1.05880504157858 
2353	 1.14689313954548 
2354	 1.21639547432299 
2355	 1.28899555778272 
2356	 1.16771582584102 
2357	 1.00551057601851 
2358	 0.786472486705658 
2359	 0.733893070562308 
2360	 0.732092531378343 
2361	 0.761327147267814 
2362	 0.828666634584636 
2363	 0.751295544587642 
2364	 0.657620903684402 
2365	 0.728628803525418 
2366	 0.882509523276718 
2367	 1.04820205740633 
2368	 1.38539963659892 
2369	 1.19376466257036 
2370	 0.858458927989371 
2371	 0.76419340789299 
2372	 0.686025568272685 
2373	 0.59801642721556 
2374	 0.545208386628896 
2375	 0.51515790131935 
2376	 0.451777340721809 
2377	 0.441204058218501 
2378	 0.545652214388813 
2379	 0.56813192687867 
2380	 0.52021619181144 
2381	 0.531846494441282 
2382	 0.534235097462191 
2383	 0.555028509580145 
2384	 0.625423590932401 
2385	 0.678552264535581 
2386	 0.699549666741941 
2387	 0.807561351442744 
2388	 1.03358128697287 
2389	 1.17100743876232 
2390	 1.44813839191946 
2391	 1.58190095712588 
2392	 1.55939990498864 
2393	 1.41756722904719 
2394	 1.20951351034638 
2395	 1.02833273246969 
2396	 0.734158634011079 
2397	 0.716686805741718 
2398	 0.741978480921917 
2399	 0.889593906894448 
2400	 1.54383979588259 
2401	 1.81172193481319 
2402	 1.74989513144158 
2403	 1.90476204766834 
2404	 1.98634824493493 
2405	 1.83941716819926 
2406	 1.60274330251528 
2407	 1.48574972637546 
2408	 1.13218526952429 
2409	 1.07715784518498 
2410	 1.44013076012436 
2411	 1.53692824560188 
2412	 1.55973266278892 
2413	 1.39194082093599 
2414	 1.02404648397824 
2415	 0.995687917444821 
2416	 1.04301741199588 
2417	 0.99679321522494 
2418	 1.09222410149586 
2419	 1.08917360221542 
2420	 0.89889343940038 
2421	 0.854267642828494 
2422	 0.918583708636323 
2423	 0.910516959470971 
2424	 0.882628005698809 
2425	 0.869730112982816 
2426	 0.880489970544428 
2427	 0.875276359418174 
2428	 0.826487345451889 
2429	 0.802266923168425 
2430	 0.74680984237998 
2431	 0.816648643953538 
2432	 0.888996733843584 
2433	 1.15612683840309 
2434	 1.94844163795163 
2435	 2.14418348474315 
2436	 2.25612373108804 
2437	 2.19609465628996 
2438	 1.58545293911933 
2439	 1.53366290334686 
2440	 1.79638864215662 
2441	 1.78426984597353 
2442	 1.67497078833429 
2443	 1.71931506373021 
2444	 1.73614862552867 
2445	 1.61160274624968 
2446	 1.60748400558604 
2447	 1.499075945899 
2448	 1.28129420157514 
2449	 1.16471925677061 
2450	 0.931084950545528 
2451	 0.760506923695979 
2452	 0.70435124876711 
2453	 0.790185954440509 
2454	 0.943816470143838 
2455	 1.24613569955279 
2456	 1.74791772430338 
2457	 2.60697148981853 
2458	 3.05875006635008 
2459	 1.99400395444446 
2460	 1.48216625544403 
2461	 0.730185227553562 
2462	 0.470837352478822 
2463	 0.35456732337794 
2464	 0.358027723356836 
2465	 0.747687732637552 
2466	 0.966578689894427 
2467	 1.15038849025255 
2468	 1.38607245435102 
2469	 1.94528604467743 
2470	 2.29521137739907 
2471	 2.64407305994976 
2472	 2.57625248064675 
2473	 1.25932159808712 
2474	 1.14010160147162 
2475	 1.63981770465965 
2476	 1.57284636817164 
2477	 2.04066198537211 
2478	 1.56297046894883 
2479	 0.826934063601456 
2480	 0.77175746475636 
2481	 0.834833693171093 
2482	 0.847206202383763 
2483	 0.861543235836015 
2484	 1.01777176999553 
2485	 1.68111853929948 
2486	 2.7816311163384 
2487	 4.10791596941655 
2488	 4.37019876583852 
2489	 2.9883963148391 
2490	 2.44959714831146 
2491	 1.87957116848899 
2492	 1.49554919088031 
2493	 0.883006429941088 
2494	 0.754743255627458 
2495	 0.797312085200597 
2496	 0.908435454945951 
2497	 1.51710337325457 
2498	 1.93109975104886 
2499	 3.03517456194361 
2500	 3.35667445773255 
