Wavelength	000017.asd
350	 6.34775871827032E-02 
351	 6.34813676003898E-02 
352	 6.31026193819011E-02 
353	 6.41908853438827E-02 
354	 6.40936194194892E-02 
355	 6.33594267271981E-02 
356	 6.27208966896995E-02 
357	 6.27186263969934E-02 
358	 6.32523289751628E-02 
359	 6.28538538680875E-02 
360	 6.18189237570595E-02 
361	 6.31879077277435E-02 
362	 0.063349501969468 
363	 6.25713459027527E-02 
364	 0.061909832069737 
365	 6.19816585064584E-02 
366	 6.21133184156819E-02 
367	 6.21888055518509E-02 
368	 6.22119450298546E-02 
369	 6.16042131270916E-02 
370	 6.15953189088231E-02 
371	 6.22292066241835E-02 
372	 6.25840630623408E-02 
373	 6.15440659119159E-02 
374	 6.09885238672626E-02 
375	 6.16383272071656E-02 
376	 6.23232768421451E-02 
377	 6.18724031043733E-02 
378	 6.10168352009215E-02 
379	 6.07707387536322E-02 
380	 6.18381562769821E-02 
381	 6.19190926785839E-02 
382	 6.10770238523164E-02 
383	 6.03817415924913E-02 
384	 6.07361441066022E-02 
385	 0.061684251384913 
386	 6.22441388999999E-02 
387	 6.15010099256472E-02 
388	 6.15286093793929E-02 
389	 6.22029071757007E-02 
390	 6.27453354559457E-02 
391	 0.062016030110288 
392	 6.17997734339423E-02 
393	 6.16775486905849E-02 
394	 6.13327573730744E-02 
395	 0.061725535830085 
396	 6.22535138511608E-02 
397	 6.20335681641873E-02 
398	 6.08869013016273E-02 
399	 6.14055982916865E-02 
400	 6.19078132389467E-02 
401	 6.20075307579594E-02 
402	 6.21390035226923E-02 
403	 6.19019655570326E-02 
404	 6.16980644755003E-02 
405	 0.061634541800804 
406	 6.13480066406661E-02 
407	 6.12605274719399E-02 
408	 6.10903855947838E-02 
409	 6.06571115928762E-02 
410	 6.04599005973211E-02 
411	 6.03630366506799E-02 
412	 6.02449460918443E-02 
413	 6.00389662477958E-02 
414	 5.99810868176151E-02 
415	 5.98163981205164E-02 
416	 5.95707538616801E-02 
417	 5.95129266955373E-02 
418	 5.93343608892284E-02 
419	 5.91680227628442E-02 
420	 5.90934545293269E-02 
421	 0.058963628937718 
422	 0.058845385192683 
423	 5.87666891417369E-02 
424	 5.87278835537953E-02 
425	 5.86990456533321E-02 
426	 5.84219786050642E-02 
427	 5.81107201566843E-02 
428	 5.81948733485859E-02 
429	 5.79292237244171E-02 
430	 5.76808978250223E-02 
431	 0.057609474671745 
432	 5.74148375969078E-02 
433	 5.74844553249335E-02 
434	 5.74793972705943E-02 
435	 5.71521930814532E-02 
436	 5.69540909986345E-02 
437	 5.67254279846134E-02 
438	 5.65778348306062E-02 
439	 5.66815751615855E-02 
440	 5.67317775561196E-02 
441	 5.67825031102077E-02 
442	 5.69224086114862E-02 
443	 5.72322745370868E-02 
444	 5.73726797472324E-02 
445	 5.76261608537825E-02 
446	 5.81422689475232E-02 
447	 0.058447652148952 
448	 5.84944507215923E-02 
449	 5.85786854523742E-02 
450	 5.90360994381705E-02 
451	 0.05945080300978 
452	 5.97981185048896E-02 
453	 6.00318454665836E-02 
454	 6.00766128230422E-02 
455	 6.04551816413572E-02 
456	 6.08387407925894E-02 
457	 6.09173842259899E-02 
458	 6.08643240824235E-02 
459	 6.07662441171123E-02 
460	 6.07696114262192E-02 
461	 6.09665249730447E-02 
462	 6.10695191077531E-02 
463	 6.10297065438607E-02 
464	 6.09442085542874E-02 
465	 6.10281788538406E-02 
466	 6.10576457341594E-02 
467	 6.09110924100771E-02 
468	 6.06639819008308E-02 
469	 6.08483715371672E-02 
470	 6.09243245346716E-02 
471	 0.060814094476844 
472	 6.06469123301142E-02 
473	 6.04862771860227E-02 
474	 6.04735615572786E-02 
475	 6.05388783788769E-02 
476	 6.04077041482106E-02 
477	 6.04519104503839E-02 
478	 6.04210176357011E-02 
479	 6.01361503256705E-02 
480	 5.98870806051897E-02 
481	 5.99526072117049E-02 
482	 6.00903353173081E-02 
483	 5.99141217166781E-02 
484	 5.99481736793105E-02 
485	 6.00263233768553E-02 
486	 6.00012620418198E-02 
487	 5.98321963093391E-02 
488	 5.98008882968557E-02 
489	 5.97966723454191E-02 
490	 5.97437519699215E-02 
491	 5.99471724197543E-02 
492	 6.00601452730675E-02 
493	 6.00243045040308E-02 
494	 5.99668857529976E-02 
495	 6.02086003197067E-02 
496	 6.03749158702925E-02 
497	 6.03360955517052E-02 
498	 0.060363388333041 
499	 6.04692453939462E-02 
500	 6.07239218756227E-02 
501	 6.10604491160243E-02 
502	 6.09120082082542E-02 
503	 6.09374812639272E-02 
504	 6.12822685797275E-02 
505	 6.17095072446257E-02 
506	 6.18024793949091E-02 
507	 6.18576009791951E-02 
508	 6.20803569217948E-02 
509	 6.24143235007826E-02 
510	 6.23855537566731E-02 
511	 6.23136568571909E-02 
512	 6.25961673681637E-02 
513	 6.29482699662874E-02 
514	 6.31818239223567E-02 
515	 6.33281529148224E-02 
516	 6.35762629919471E-02 
517	 6.37174588890551E-02 
518	 6.38989166148621E-02 
519	 6.41580135138899E-02 
520	 6.41849484573012E-02 
521	 6.45482551520282E-02 
522	 6.49566968708128E-02 
523	 6.49834789030658E-02 
524	 6.50506364047199E-02 
525	 6.51640973804276E-02 
526	 6.53884369756126E-02 
527	 6.58390069470519E-02 
528	 6.60136264864346E-02 
529	 6.61390820031178E-02 
530	 6.64274145629492E-02 
531	 6.66577226624358E-02 
532	 0.067064021087659 
533	 0.067543441502847 
534	 6.78529074435846E-02 
535	 6.80401170585192E-02 
536	 6.82680944028589E-02 
537	 6.86228808906898E-02 
538	 6.90761284180412E-02 
539	 6.93926119421058E-02 
540	 0.069664182038286 
541	 7.00238885672666E-02 
542	 7.03795337770082E-02 
543	 7.07852805208361E-02 
544	 7.12261122428871E-02 
545	 7.16394990465122E-02 
546	 7.19429107050355E-02 
547	 7.24059925898878E-02 
548	 7.30564180077302E-02 
549	 7.33860197053006E-02 
550	 7.37553483304584E-02 
551	 7.41637171570861E-02 
552	 7.45190369896401E-02 
553	 0.074863437989352 
554	 7.54121274435676E-02 
555	 7.60605456191692E-02 
556	 7.64142175528293E-02 
557	 7.67048935461454E-02 
558	 7.72005190224559E-02 
559	 7.79202105665621E-02 
560	 0.078195592421834 
561	 7.86069802090672E-02 
562	 7.90786449663909E-02 
563	 7.93004616848633E-02 
564	 0.079731465037893 
565	 8.01043112173915E-02 
566	 0.080366477253716 
567	 8.08790339602054E-02 
568	 8.12851059348293E-02 
569	 8.15929532386662E-02 
570	 8.18870596614058E-02 
571	 8.21162191429726E-02 
572	 8.23515647985443E-02 
573	 8.26108223566078E-02 
574	 8.28717100954213E-02 
575	 0.083191116622277 
576	 8.33888906152594E-02 
577	 0.083437328768035 
578	 8.37477764967371E-02 
579	 8.39161061015131E-02 
580	 8.39941876740102E-02 
581	 8.41822045293025E-02 
582	 8.44213445607953E-02 
583	 0.084629970339801 
584	 0.084739851877428 
585	 8.47033770061469E-02 
586	 8.47950710167235E-02 
587	 8.49815606896277E-02 
588	 8.51945639664368E-02 
589	 8.55597814851548E-02 
590	 8.56957331144257E-02 
591	 8.55648820849131E-02 
592	 8.54339750124572E-02 
593	 8.57281701515689E-02 
594	 8.60282053000082E-02 
595	 8.60645357590638E-02 
596	 0.085988993719111 
597	 8.60115459439989E-02 
598	 8.60913828172148E-02 
599	 8.61226511378722E-02 
600	 8.61431526698019E-02 
601	 8.60783366865275E-02 
602	 8.59694409145698E-02 
603	 8.59530585238821E-02 
604	 8.58656219420027E-02 
605	 8.56454092650084E-02 
606	 8.53573782570243E-02 
607	 8.53543274667913E-02 
608	 8.53609566751986E-02 
609	 8.52181923278923E-02 
610	 8.48682291255043E-02 
611	 8.45450811419422E-02 
612	 8.43586870551353E-02 
613	 8.42375425808467E-02 
614	 8.38838095337571E-02 
615	 8.36301290051563E-02 
616	 8.34304355091583E-02 
617	 8.31745316620934E-02 
618	 8.29144021760941E-02 
619	 0.082667707962028 
620	 8.24705781608729E-02 
621	 0.082371206239196 
622	 0.082323549008522 
623	 8.22888257194767E-02 
624	 8.21856719333158E-02 
625	 8.17969818562983E-02 
626	 0.081638572563804 
627	 8.17311414503947E-02 
628	 8.18249831423267E-02 
629	 8.14065605475844E-02 
630	 8.13152143785667E-02 
631	 8.16439618935619E-02 
632	 8.15798500075909E-02 
633	 8.14696391431075E-02 
634	 8.14217243144047E-02 
635	 8.14697756145284E-02 
636	 0.081565386024942 
637	 8.17012945412475E-02 
638	 8.17524658381266E-02 
639	 8.16000422903219E-02 
640	 8.17971016502771E-02 
641	 8.19666566262156E-02 
642	 8.19236850988287E-02 
643	 8.19889585652253E-02 
644	 8.21930749056466E-02 
645	 0.082248623652797 
646	 8.19446315362591E-02 
647	 8.20453712149908E-02 
648	 8.20623909436633E-02 
649	 8.19349499072872E-02 
650	 8.19975542736694E-02 
651	 8.16873967683523E-02 
652	 0.081528081873969 
653	 8.17486092109626E-02 
654	 8.14886281559548E-02 
655	 8.11253239614374E-02 
656	 8.06536226420049E-02 
657	 8.00738234805034E-02 
658	 7.97796880204902E-02 
659	 7.93985099887577E-02 
660	 7.88084524360116E-02 
661	 7.82287244031852E-02 
662	 7.77317946405545E-02 
663	 7.69884802460904E-02 
664	 7.58719543680588E-02 
665	 7.51244796853801E-02 
666	 7.46458584622461E-02 
667	 0.074149566350371 
668	 7.33231240151312E-02 
669	 7.26528297799565E-02 
670	 7.22488609948413E-02 
671	 7.20110915208131E-02 
672	 7.15814521030912E-02 
673	 0.071219835497653 
674	 7.09794284790864E-02 
675	 7.08358525853311E-02 
676	 7.06879293649769E-02 
677	 7.07974740071834E-02 
678	 7.09938239846608E-02 
679	 7.08405589259667E-02 
680	 7.13227212959653E-02 
681	 7.20168245704969E-02 
682	 0.072593475178397 
683	 7.34263350816169E-02 
684	 7.43622877727676E-02 
685	 7.55481515659732E-02 
686	 7.73212927134749E-02 
687	 7.92994501027957E-02 
688	 8.11658731743146E-02 
689	 8.29159152415659E-02 
690	 8.53001297533531E-02 
691	 0.087562290990724 
692	 8.97604363648655E-02 
693	 9.21544570822489E-02 
694	 9.48278481124145E-02 
695	 9.74785986772154E-02 
696	 9.98789338492237E-02 
697	 0.102172730878804 
698	 0.104768093667505 
699	 0.107311971935277 
700	 0.109569074202735 
701	 0.11181264719244 
702	 0.114162331035678 
703	 0.116167510151994 
704	 0.117657513737677 
705	 0.11932143517133 
706	 0.120966828474103 
707	 0.122523103852381 
708	 0.124008119836212 
709	 0.125218096290936 
710	 0.126230897334008 
711	 0.127228855222516 
712	 0.128509835890907 
713	 0.129391933210406 
714	 0.130207900318808 
715	 0.131350212298279 
716	 0.132238810337224 
717	 0.13327047881887 
718	 0.13453888649014 
719	 0.135720590114986 
720	 0.136666575884576 
721	 0.13735487562997 
722	 0.137843092486335 
723	 0.137950671293372 
724	 0.138547274146923 
725	 0.139598189332172 
726	 0.140558986709283 
727	 0.140689824785121 
728	 0.141265967210173 
729	 0.142114302853943 
730	 0.14228041532184 
731	 0.143006633960307 
732	 0.143907686625391 
733	 0.144459422514776 
734	 0.14419039111754 
735	 0.144636974948951 
736	 0.145519730435443 
737	 0.146147785887745 
738	 0.146429966509849 
739	 0.146740385589891 
740	 0.147109185387329 
741	 0.147410814954918 
742	 0.148213629399667 
743	 0.148778915949536 
744	 0.148925107715081 
745	 0.149435828116699 
746	 0.149838509801915 
747	 0.150191538234703 
748	 0.150655694506279 
749	 0.15128069208529 
750	 0.15182435544707 
751	 0.152281227952112 
752	 0.152789744700051 
753	 0.153324226325431 
754	 0.153800581398324 
755	 0.154199313946005 
756	 0.154593655113778 
757	 0.15475627026781 
758	 0.154889843156669 
759	 0.155295996301719 
760	 0.1558107674452 
761	 0.156765874616066 
762	 0.157387115777105 
763	 0.157288186511219 
764	 0.157856946845628 
765	 0.158337064378631 
766	 0.158481281314376 
767	 0.158474865148492 
768	 0.158857786207413 
769	 0.159094836718572 
770	 0.15902232547273 
771	 0.159653325408198 
772	 0.159940587331973 
773	 0.15998139576043 
774	 0.160217473280046 
775	 0.16047322632655 
776	 0.160534283239914 
777	 0.160590395836943 
778	 0.161096539857985 
779	 0.161216128362458 
780	 0.161196982600894 
781	 0.16133499567467 
782	 0.161706612121529 
783	 0.161778577300845 
784	 0.161802314863076 
785	 0.162076044145531 
786	 0.162042178451614 
787	 0.162228537249175 
788	 0.162557463146877 
789	 0.162602320851485 
790	 0.162738568280425 
791	 0.162904027670928 
792	 0.163046568998892 
793	 0.163181081397354 
794	 0.163169597903109 
795	 0.163176822880576 
796	 0.163283629831183 
797	 0.163173904724198 
798	 0.163280703181609 
799	 0.163430512577423 
800	 0.163347263935737 
801	 0.163431452192071 
802	 0.163562723281584 
803	 0.163758955768174 
804	 0.164089310128871 
805	 0.163979960147447 
806	 0.163881877901193 
807	 0.1639981611194 
808	 0.16403493512081 
809	 0.163981745110934 
810	 0.164111950744753 
811	 0.164615782437198 
812	 0.165223551342441 
813	 0.165107381496628 
814	 0.164829068320016 
815	 0.165406608668692 
816	 0.164865703686299 
817	 0.164790718759611 
818	 0.165435364590243 
819	 0.165822664912057 
820	 0.165343374348868 
821	 0.165089705888113 
822	 0.165421103669136 
823	 0.16552201815059 
824	 0.165043306451231 
825	 0.165042544685304 
826	 0.165819266821499 
827	 0.165550023581204 
828	 0.165411804303013 
829	 0.165576109310206 
830	 0.165724743730058 
831	 0.165037992231278 
832	 0.164978723997895 
833	 0.165440502887027 
834	 0.165444025624697 
835	 0.164846775392424 
836	 0.165131751425346 
837	 0.165934569569477 
838	 0.165268062856375 
839	 0.165057440689406 
840	 0.165023441357781 
841	 0.164851561524864 
842	 0.16474708768384 
843	 0.164822714532666 
844	 0.164840540425415 
845	 0.164595328818261 
846	 0.164173424812166 
847	 0.164210815682942 
848	 0.164445380018457 
849	 0.164308531589004 
850	 0.163707636496257 
851	 0.163599618572671 
852	 0.163979037170074 
853	 0.164144884371667 
854	 0.163922341419541 
855	 0.163961713894102 
856	 0.164282797532026 
857	 0.164230223357572 
858	 0.163662600161324 
859	 0.163467136786217 
860	 0.163803072916354 
861	 0.163545936527816 
862	 0.163782249399707 
863	 0.164205111333759 
864	 0.164305494272163 
865	 0.163872984351577 
866	 0.16366827760349 
867	 0.163976797444024 
868	 0.164612543028483 
869	 0.164575895596242 
870	 0.164437406978028 
871	 0.164471897522293 
872	 0.164713231999254 
873	 0.164761918308768 
874	 0.164813252811643 
875	 0.165080240038477 
876	 0.165606789719517 
877	 0.165362758729774 
878	 0.16535497022061 
879	 0.165831554967519 
880	 0.166138106161376 
881	 0.166185619856167 
882	 0.165948539236128 
883	 0.165854543166422 
884	 0.166731516186934 
885	 0.166793695119642 
886	 0.16679268682326 
887	 0.167184401467362 
888	 0.16704882842432 
889	 0.167297035575746 
890	 0.167561615328823 
891	 0.167476947963165 
892	 0.167475781915613 
893	 0.168170677010943 
894	 0.168429276471983 
895	 0.167222484098003 
896	 0.166788072274951 
897	 0.16831952961719 
898	 0.169818522222425 
899	 0.168724126331609 
900	 0.167616849944622 
901	 0.168181022664754 
902	 0.169142446203534 
903	 0.168661912330891 
904	 0.168295950733944 
905	 0.169000033649283 
906	 0.170232054017008 
907	 0.170687123853068 
908	 0.170042346227811 
909	 0.170230440891942 
910	 0.170610798824256 
911	 0.169062820346603 
912	 0.169680911613766 
913	 0.170283308415031 
914	 0.169898273057677 
915	 0.169267060575603 
916	 0.170205587372423 
917	 0.169935181636476 
918	 0.169146030403716 
919	 0.170776181164404 
920	 0.169701475626191 
921	 0.169045395529526 
922	 0.169662939461859 
923	 0.169659653627052 
924	 0.170740824772835 
925	 0.170690421998349 
926	 0.168909273753347 
927	 0.168164120306631 
928	 0.169776118250417 
929	 0.168410432130696 
930	 0.164203879747542 
931	 0.173718006325635 
932	 0.17130638817573 
933	 0.166892101075927 
934	 0.16912432429923 
935	 0.157975930124923 
936	 0.166294771609504 
937	 0.170470664999252 
938	 0.165196900292999 
939	 0.171581498298523 
940	 0.17079334310289 
941	 0.164471859391561 
942	 0.158285375811845 
943	 0.158545059228343 
944	 0.161620129212521 
945	 0.161383540131404 
946	 0.160702485001168 
947	 0.171566459668437 
948	 0.163322742359638 
949	 0.162214742661356 
950	 0.173396380317446 
951	 0.173355059781735 
952	 0.16848812724351 
953	 0.168977320703968 
954	 0.173862653076354 
955	 0.17249239932211 
956	 0.172507591333557 
957	 0.171591653127535 
958	 0.169131975442871 
959	 0.167207796942092 
960	 0.168604883198292 
961	 0.174549979199975 
962	 0.178593247046705 
963	 0.173149224795619 
964	 0.169967379411814 
965	 0.171502722157961 
966	 0.172223562242178 
967	 0.165870619957439 
968	 0.163033802040808 
969	 0.16585729915401 
970	 0.167787625072787 
971	 0.162868376150116 
972	 0.169812063662564 
973	 0.172208748385257 
974	 0.169457986826863 
975	 0.168993985461594 
976	 0.167121829634755 
977	 0.16555023462026 
978	 0.165342238461639 
979	 0.166153637371375 
980	 0.164516766555937 
981	 0.167040777384028 
982	 0.170186706215827 
983	 0.169885321760164 
984	 0.168879848039459 
985	 0.169321395102585 
986	 0.170765583066781 
987	 0.171488356550267 
988	 0.169219894600223 
989	 0.165928900556208 
990	 0.165380835985443 
991	 0.16764021962151 
992	 0.167747468097939 
993	 0.172530842757129 
994	 0.171838350695714 
995	 0.165973982014197 
996	 0.167590231715867 
997	 0.168897131488214 
998	 0.169121918818722 
999	 0.168606104164422 
1000	 0.168088645784292 
1001	 0.174285896345478 
1002	 0.175166411917425 
1003	 0.17872549615253 
1004	 0.180310831373026 
1005	 0.182065117181237 
1006	 0.181759073057172 
1007	 0.179423160692151 
1008	 0.178738528183483 
1009	 0.176616013776184 
1010	 0.177408979850677 
1011	 0.179607476563885 
1012	 0.179634458560509 
1013	 0.179097347186371 
1014	 0.178518865968848 
1015	 0.178178034151557 
1016	 0.178824354906852 
1017	 0.178635451871243 
1018	 0.177753082572315 
1019	 0.178426572057857 
1020	 0.178827155267644 
1021	 0.180312846750282 
1022	 0.185642419692203 
1023	 0.186729583127508 
1024	 0.186111288545097 
1025	 0.185172367321412 
1026	 0.182434327649603 
1027	 0.180285264415307 
1028	 0.181892357062685 
1029	 0.18352643228366 
1030	 0.184175556515906 
1031	 0.185215108326665 
1032	 0.184405674390745 
1033	 0.180860741783199 
1034	 0.179063562613016 
1035	 0.176786831637044 
1036	 0.175740389403623 
1037	 0.175577918872788 
1038	 0.175540514190573 
1039	 0.176315834841622 
1040	 0.175980642973457 
1041	 0.176031493524798 
1042	 0.175583123736215 
1043	 0.173148509611003 
1044	 0.172376748411463 
1045	 0.171423262285985 
1046	 0.171704672925537 
1047	 0.174191708124593 
1048	 0.174875998288936 
1049	 0.176369171865741 
1050	 0.17966913433263 
1051	 0.180175846649556 
1052	 0.179370554079789 
1053	 0.178432187056838 
1054	 0.176999469801772 
1055	 0.174912982865453 
1056	 0.174704592050692 
1057	 0.175886105823906 
1058	 0.175561004829969 
1059	 0.175801608022292 
1060	 0.178140037772058 
1061	 0.178574204428945 
1062	 0.179284100948603 
1063	 0.179793581955105 
1064	 0.179994850532242 
1065	 0.178623856468081 
1066	 0.179237076224245 
1067	 0.178821152976995 
1068	 0.177197141326852 
1069	 0.174233282371814 
1070	 0.171848814273975 
1071	 0.173227814909623 
1072	 0.173831147835401 
1073	 0.174612408678656 
1074	 0.175994904593794 
1075	 0.176137788609121 
1076	 0.178406752967505 
1077	 0.179945027227451 
1078	 0.180831528630667 
1079	 0.181620160618044 
1080	 0.182183891567787 
1081	 0.180238604996723 
1082	 0.178860645014947 
1083	 0.178012945765428 
1084	 0.176522522397481 
1085	 0.177769949353173 
1086	 0.179950064610957 
1087	 0.179750848914131 
1088	 0.180719467406508 
1089	 0.181433080872028 
1090	 0.17955384082079 
1091	 0.179888723473608 
1092	 0.180733638014953 
1093	 0.179856023820173 
1094	 0.17982939567097 
1095	 0.178920716564235 
1096	 0.177797140609694 
1097	 0.175551400313044 
1098	 0.17352829659391 
1099	 0.174446492724238 
1100	 0.177544133699447 
1101	 0.179652310340437 
1102	 0.18178543761797 
1103	 0.181420457686663 
1104	 0.179564291613771 
1105	 0.179375624299847 
1106	 0.179544835276854 
1107	 0.178286524327968 
1108	 0.177595747466153 
1109	 0.176791736508654 
1110	 0.175539228960123 
1111	 0.173644956581353 
1112	 0.17355951470573 
1113	 0.174349647172525 
1114	 0.173400790926233 
1115	 0.176711974693043 
1116	 0.178343129434575 
1117	 0.181550881710802 
1118	 0.193229987471118 
1119	 0.199651139893196 
1120	 0.204734819812623 
1121	 0.205089034644378 
1122	 0.158638265609455 
1123	 0.134210588622225 
1124	 0.150715531421865 
1125	 0.154493797495768 
1126	 0.208025605380221 
1127	 0.214494353324369 
1128	 0.163839873232268 
1129	 0.153922074739245 
1130	 0.1475194770511 
1131	 0.142508712677473 
1132	 0.15427759183548 
1133	 0.166733506772159 
1134	 0.155006829571707 
1135	 0.164798646201757 
1136	 0.182512109623717 
1137	 0.189241764303151 
1138	 0.195443266539805 
1139	 0.190475655543158 
1140	 0.18518850456832 
1141	 0.180571831428578 
1142	 0.180065904641366 
1143	 0.189181630114721 
1144	 0.193212074180208 
1145	 0.196836633099779 
1146	 0.198116328356163 
1147	 0.204864942244829 
1148	 0.190049163107776 
1149	 0.168941675138863 
1150	 0.164049788990211 
1151	 0.164551473873498 
1152	 0.171687000795435 
1153	 0.175102476964053 
1154	 0.178896750360432 
1155	 0.190145811136654 
1156	 0.191550536485949 
1157	 0.19366858813147 
1158	 0.199641463821219 
1159	 0.198351911178322 
1160	 0.189724424510027 
1161	 0.188233485624783 
1162	 0.188902226562024 
1163	 0.186736405273197 
1164	 0.184632892419206 
1165	 0.183114029237436 
1166	 0.180006306498792 
1167	 0.177675598765141 
1168	 0.178494782180873 
1169	 0.178620521092525 
1170	 0.177381481554057 
1171	 0.179090175596406 
1172	 0.179818831712697 
1173	 0.179122277897642 
1174	 0.179915664536407 
1175	 0.179428652419551 
1176	 0.179163362603417 
1177	 0.178643178368587 
1178	 0.17801887805808 
1179	 0.176146857396181 
1180	 0.176545714097871 
1181	 0.179111388078168 
1182	 0.17956760123274 
1183	 0.18014244262965 
1184	 0.181350312249078 
1185	 0.18023779501542 
1186	 0.178335187838096 
1187	 0.179109649906475 
1188	 0.17990118687608 
1189	 0.17962787455164 
1190	 0.178925012102497 
1191	 0.178287432540883 
1192	 0.177821238693041 
1193	 0.177729353275693 
1194	 0.178025381807803 
1195	 0.178841837921322 
1196	 0.180316747504956 
1197	 0.180920197160517 
1198	 0.182290746222553 
1199	 0.181896086227676 
1200	 0.179293089209561 
1201	 0.17888897283269 
1202	 0.178851535070228 
1203	 0.17820798585804 
1204	 0.18031614550803 
1205	 0.18102380978325 
1206	 0.180888576031898 
1207	 0.182449989718515 
1208	 0.181883668969185 
1209	 0.180857890953603 
1210	 0.180266330683598 
1211	 0.178680257399497 
1212	 0.178184224986725 
1213	 0.17852705076605 
1214	 0.178589873757371 
1215	 0.179063565844168 
1216	 0.179242703628221 
1217	 0.179399041223826 
1218	 0.17919866815884 
1219	 0.178689644914162 
1220	 0.178597790409196 
1221	 0.178052087550483 
1222	 0.178692251670057 
1223	 0.17949780299061 
1224	 0.177588499187145 
1225	 0.177104214008196 
1226	 0.177969568166998 
1227	 0.177500655037371 
1228	 0.179162991408589 
1229	 0.179989511670538 
1230	 0.180039839890997 
1231	 0.180420779381124 
1232	 0.181559082170279 
1233	 0.181701572567097 
1234	 0.18110254883493 
1235	 0.181205109707599 
1236	 0.181295452487399 
1237	 0.181382775715544 
1238	 0.181831044482489 
1239	 0.18204666220721 
1240	 0.182351172079566 
1241	 0.182425225895487 
1242	 0.182376244314301 
1243	 0.182178897171267 
1244	 0.181408127412101 
1245	 0.180210076573568 
1246	 0.180213245172723 
1247	 0.179971659886107 
1248	 0.179940101062956 
1249	 0.180443575064975 
1250	 0.180863072707982 
1251	 0.181572395173895 
1252	 0.181225531917807 
1253	 0.18029607396835 
1254	 0.180179740895994 
1255	 0.179293720162209 
1256	 0.17923825234317 
1257	 0.18110367670032 
1258	 0.181289110203606 
1259	 0.180054956972239 
1260	 0.179976991921873 
1261	 0.180048960331998 
1262	 0.17999475215479 
1263	 0.180688185486726 
1264	 0.181109046864588 
1265	 0.180309091406879 
1266	 0.179898862789675 
1267	 0.179168645433513 
1268	 0.178934452184197 
1269	 0.17892832499943 
1270	 0.179128634538296 
1271	 0.179156997759025 
1272	 0.178985459838843 
1273	 0.179513850284052 
1274	 0.180879753451842 
1275	 0.181350789700834 
1276	 0.182134364422662 
1277	 0.182506366673401 
1278	 0.181738648589135 
1279	 0.181506563438483 
1280	 0.181388133122658 
1281	 0.181702517145439 
1282	 0.182544882784456 
1283	 0.182753090077422 
1284	 0.183415906856712 
1285	 0.183307480410247 
1286	 0.18101124107457 
1287	 0.18108191464976 
1288	 0.181679056980223 
1289	 0.181075073639669 
1290	 0.181890707525099 
1291	 0.184269450664727 
1292	 0.184939346350065 
1293	 0.18554084137457 
1294	 0.185970979634178 
1295	 0.186013922070475 
1296	 0.185403308964693 
1297	 0.183968500402418 
1298	 0.182956796775975 
1299	 0.180832704628677 
1300	 0.179968626833088 
1301	 0.180783754834327 
1302	 0.180670944930315 
1303	 0.179728661978338 
1304	 0.179990647555873 
1305	 0.181050898901793 
1306	 0.181289619890011 
1307	 0.181928206681879 
1308	 0.183462394192498 
1309	 0.18090058240221 
1310	 0.179319484536709 
1311	 0.179414222759904 
1312	 0.179230210750347 
1313	 0.181049536994774 
1314	 0.186635919058282 
1315	 0.189101543607793 
1316	 0.19171727721705 
1317	 0.192634339556054 
1318	 0.190671552650962 
1319	 0.190981305975666 
1320	 0.191753019231043 
1321	 0.191036724879807 
1322	 0.189574196301607 
1323	 0.189772407034708 
1324	 0.189276022552988 
1325	 0.18976602079222 
1326	 0.19442808290488 
1327	 0.196899031278246 
1328	 0.197059297907389 
1329	 0.198351785005627 
1330	 0.200168980498651 
1331	 0.201132768839287 
1332	 0.201928052881265 
1333	 0.20146518378408 
1334	 0.203403887418035 
1335	 0.207328666749958 
1336	 0.206262917686362 
1337	 0.2039709473381 
1338	 0.203059746862291 
1339	 0.19646066196636 
1340	 0.197540116108819 
1341	 0.208095493000892 
1342	 0.211153785853823 
1343	 0.214846475602784 
1344	 0.215085299746466 
1345	 0.19882920351158 
1346	 0.198514307852064 
1347	 0.212372197340878 
1348	 0.23417802929394 
1349	 0.292924737017126 
1350	 0.415747345869847 
1351	 0.728959805655117 
1352	 1.41040080063193 
1353	 3.71146136412201 
1354	 432.974436317831 
1355	 6.81644635125619 
1356	 7.45054342715971 
1357	 11.3583526476729 
1358	 8.13727320636306 
1359	 7.50538880018168 
1360	 2.70227008140064 
1361	 1.78719213009769 
1362	 1.36447568898372 
1363	 1.3608114608679 
1364	 2.26733249273364 
1365	 2.75962317621616 
1366	 3.92434837842235 
1367	 3.8515471629857 
1368	 2.15618037159132 
1369	 2.59112746570977 
1370	 5.50427202735765 
1371	 8.83042725819706 
1372	-5.08777713828084 
1373	-4.19224607176137 
1374	 4.80233757243374 
1375	 4.8083428853097 
1376	-95.7615301857103 
1377	 20.4337862044972 
1378	 7.02752909278924 
1379	 5.11007617200439 
1380	 2.16214852727413 
1381	 1.66112311770137 
1382	 1.96517897709598 
1383	 2.04887636086976 
1384	 1.56265344131992 
1385	 1.77849933584844 
1386	 5.37536727568587 
1387	-6.841695429762 
1388	-4.19485859508195 
1389	-2.01885988593158 
1390	-1.68969111906957 
1391	-1.65850206240942 
1392	-1.98002709879314 
1393	-2.50293564927417 
1394	 2.92706029564503 
1395	 0.677637999642468 
1396	 0.664476749582087 
1397	 1.00914180729825 
1398	 1.15977147451272 
1399	 1.59802997330355 
1400	 2.07713061540538 
1401	 4.52405417909168 
1402	 98.6848496038717 
1403	-16.2083773448319 
1404	-3.77164461937463 
1405	-2.69068431235592 
1406	-2.72420249905303 
1407	-4.05825518076348 
1408	-3.1884967511441 
1409	-2.19704812995572 
1410	-1.72357514772707 
1411	-0.831515201120937 
1412	-0.685062161507419 
1413	-1.01777267136214 
1414	-1.2205515490155 
1415	-1.46400070814926 
1416	-1.57193168000858 
1417	-1.25152885255914 
1418	-1.28745893795176 
1419	-1.41330672264956 
1420	 10.579528996198 
1421	 1.01192525119708 
1422	 1.08277269888607 
1423	 0.806086588672372 
1424	 1.10691118444365 
1425	 0.769879335727694 
1426	-5.81773225709442E-02 
1427	-4.30407143343569E-03 
1428	 0.391635460847132 
1429	 0.595299159178845 
1430	 0.814129324932415 
1431	 0.954373933532411 
1432	 1.00557947926119 
1433	 0.98649325577984 
1434	 1.20528152129991 
1435	 1.24081024812306 
1436	-0.211472771491264 
1437	-0.425165197174781 
1438	 1.45408080931408 
1439	 1.44277714622686 
1440	 1.50086055116194 
1441	 1.02149721789137 
1442	 1.26067399287298E-02 
1443	-0.28429608673022 
1444	-0.453799715357025 
1445	-0.453268980491621 
1446	-0.381503608591792 
1447	-0.215185252562084 
1448	 0.115216610555263 
1449	 0.199832960228627 
1450	 0.194048633670085 
1451	 0.201870094762746 
1452	 0.111199905980345 
1453	 9.15088148713519E-02 
1454	 0.129044750473389 
1455	 0.160571674602146 
1456	 0.14574601710971 
1457	 0.159339147448198 
1458	 0.144702729525993 
1459	 0.112311028679232 
1460	 9.58025439256673E-02 
1461	 7.10641901870956E-02 
1462	 6.93884075946528E-02 
1463	 8.01049014868412E-02 
1464	 8.40258880997187E-02 
1465	 0.104740018298074 
1466	 0.114328359586113 
1467	 0.114883662203212 
1468	 0.11192149129698 
1469	 9.73951092629425E-02 
1470	 0.105496948406116 
1471	 0.111122974198254 
1472	 0.123636119319321 
1473	 0.165831159462885 
1474	 0.169327825792713 
1475	 0.158680988346816 
1476	 0.141138212135156 
1477	 0.100070309917765 
1478	 8.82905704542716E-02 
1479	 8.40282653668723E-02 
1480	 7.89727666099952E-02 
1481	 7.09214484506446E-02 
1482	 8.93393593480441E-02 
1483	 0.122245298809867 
1484	 0.141949699799172 
1485	 0.182637662300295 
1486	 0.188202459171296 
1487	 0.162409455609919 
1488	 0.158769774370762 
1489	 0.155590652785991 
1490	 0.155862402956897 
1491	 0.168153942996512 
1492	 0.168169715761682 
1493	 0.160994892204194 
1494	 0.158196447247376 
1495	 0.152395441237132 
1496	 0.150338388825523 
1497	 0.153183224779974 
1498	 0.153280327492046 
1499	 0.154251911258022 
1500	 0.150613245051436 
1501	 0.152266804731711 
1502	 0.156857870464208 
1503	 0.156938924531194 
1504	 0.160874387001925 
1505	 0.158783558326088 
1506	 0.150392229032751 
1507	 0.14986693096418 
1508	 0.151645281355991 
1509	 0.151001873795536 
1510	 0.152175273101771 
1511	 0.151543843648961 
1512	 0.147692981771919 
1513	 0.147906249501616 
1514	 0.150881876054743 
1515	 0.151405657998605 
1516	 0.151705823037633 
1517	 0.152808534245001 
1518	 0.153525565096444 
1519	 0.153761101386446 
1520	 0.154862403504525 
1521	 0.154877034658916 
1522	 0.152416323713688 
1523	 0.153162696726669 
1524	 0.15588771638153 
1525	 0.157499835970593 
1526	 0.160638988508969 
1527	 0.161633871144807 
1528	 0.161280160144093 
1529	 0.160798961426352 
1530	 0.158326285264528 
1531	 0.158403029060915 
1532	 0.158830038801262 
1533	 0.1602235976963 
1534	 0.163826063463453 
1535	 0.166594747300202 
1536	 0.170040909335442 
1537	 0.172316820452831 
1538	 0.174617278211441 
1539	 0.175359342494713 
1540	 0.175549864402484 
1541	 0.173921260750844 
1542	 0.168938310128637 
1543	 0.166966932453101 
1544	 0.165188638210319 
1545	 0.163614078304427 
1546	 0.163914219976309 
1547	 0.163743650323979 
1548	 0.162645400059467 
1549	 0.162255375103528 
1550	 0.162773202994082 
1551	 0.163237603776052 
1552	 0.164350030608489 
1553	 0.164173272791642 
1554	 0.16322457721054 
1555	 0.162714512254033 
1556	 0.161335580919594 
1557	 0.160721554635593 
1558	 0.161498484596013 
1559	 0.161271551760649 
1560	 0.158808629127208 
1561	 0.159028200653169 
1562	 0.159729983517608 
1563	 0.162983975928527 
1564	 0.166169160632568 
1565	 0.167506697846591 
1566	 0.166601729516693 
1567	 0.163883568748942 
1568	 0.161291531972488 
1569	 0.159726727055016 
1570	 0.158451846755287 
1571	 0.156750814676464 
1572	 0.156769335367439 
1573	 0.158398953292951 
1574	 0.159595150820992 
1575	 0.161346702493324 
1576	 0.162848813900187 
1577	 0.16371905428883 
1578	 0.166077139827189 
1579	 0.16833305085786 
1580	 0.168400938475676 
1581	 0.16860197545345 
1582	 0.168815699551575 
1583	 0.167541715934403 
1584	 0.166905775296192 
1585	 0.167161551686884 
1586	 0.167158695807276 
1587	 0.166524393598615 
1588	 0.166686030466791 
1589	 0.167912281343039 
1590	 0.168289144637477 
1591	 0.169250590351392 
1592	 0.168230850817687 
1593	 0.165298620256287 
1594	 0.164280177255996 
1595	 0.162387211643621 
1596	 0.162017503025428 
1597	 0.16386552857532 
1598	 0.164754542547739 
1599	 0.165859953562316 
1600	 0.165652188400123 
1601	 0.165018188090638 
1602	 0.164507561618047 
1603	 0.162649137770903 
1604	 0.162281764993515 
1605	 0.162598835256326 
1606	 0.163465011842711 
1607	 0.165001267411954 
1608	 0.166490694711004 
1609	 0.169177767449661 
1610	 0.170483878625465 
1611	 0.171251655351079 
1612	 0.170487856051637 
1613	 0.168803015134038 
1614	 0.167142526613659 
1615	 0.163475654253166 
1616	 0.163480535952619 
1617	 0.16415818520669 
1618	 0.166687185655836 
1619	 0.173557683963875 
1620	 0.175184510633286 
1621	 0.176270997131517 
1622	 0.175134354387882 
1623	 0.169025354048914 
1624	 0.167458818402434 
1625	 0.166718351426202 
1626	 0.166985318086232 
1627	 0.170136515548713 
1628	 0.170989002747622 
1629	 0.171833332724384 
1630	 0.170907089259475 
1631	 0.168065375537616 
1632	 0.166745023081183 
1633	 0.164363904720407 
1634	 0.163783478657611 
1635	 0.164551300202774 
1636	 0.166078628447229 
1637	 0.169598603857304 
1638	 0.169846875257392 
1639	 0.169613799596246 
1640	 0.16814421730938 
1641	 0.163386009313626 
1642	 0.161855247457598 
1643	 0.161677131611133 
1644	 0.162232337793445 
1645	 0.163862230286771 
1646	 0.165014195400232 
1647	 0.167054605998981 
1648	 0.167756796383727 
1649	 0.167446898962885 
1650	 0.167611553601866 
1651	 0.167675649313742 
1652	 0.168530054476981 
1653	 0.169667425919316 
1654	 0.170569990634195 
1655	 0.172380979485777 
1656	 0.171653404139703 
1657	 0.170169217961799 
1658	 0.168780723292479 
1659	 0.16523664841018 
1660	 0.164285098345488 
1661	 0.164418244855183 
1662	 0.161881332862674 
1663	 0.161084939752095 
1664	 0.158772563192866 
1665	 0.156679202534404 
1666	 0.155620110488342 
1667	 0.156881597439279 
1668	 0.159474769447138 
1669	 0.163998140682943 
1670	 0.170425034646725 
1671	 0.17330237225247 
1672	 0.173295777137014 
1673	 0.171476866663886 
1674	 0.168613824749345 
1675	 0.167513397007973 
1676	 0.165983530531508 
1677	 0.167341108454535 
1678	 0.170343944112098 
1679	 0.171462935321255 
1680	 0.173453564515469 
1681	 0.173257396158184 
1682	 0.172942401520586 
1683	 0.172941330615044 
1684	 0.171906588449851 
1685	 0.169786688838133 
1686	 0.16651051439566 
1687	 0.164933411809179 
1688	 0.165189453689987 
1689	 0.167245386195831 
1690	 0.168744836175128 
1691	 0.16876947349128 
1692	 0.165514963278651 
1693	 0.164889195356685 
1694	 0.166092837273922 
1695	 0.165250449945506 
1696	 0.165836697713519 
1697	 0.163573187648832 
1698	 0.160613833752983 
1699	 0.159562093173665 
1700	 0.161403292043853 
1701	 0.165694121998903 
1702	 0.171042603340202 
1703	 0.175195850261756 
1704	 0.176899202655535 
1705	 0.176900127703012 
1706	 0.174369382213259 
1707	 0.174537688081503 
1708	 0.175604817407239 
1709	 0.174985409791493 
1710	 0.175394993716778 
1711	 0.174175296016979 
1712	 0.173531224011683 
1713	 0.170737745882512 
1714	 0.16489354374247 
1715	 0.162095961183108 
1716	 0.158947821699662 
1717	 0.159972030443323 
1718	 0.168114225241344 
1719	 0.174133099181231 
1720	 0.175436660406379 
1721	 0.176079752530081 
1722	 0.171659812214145 
1723	 0.171382521073648 
1724	 0.17501365763548 
1725	 0.176071073548162 
1726	 0.177206119121485 
1727	 0.178294406664761 
1728	 0.176412358705855 
1729	 0.174909684735532 
1730	 0.175913585100714 
1731	 0.173940818385893 
1732	 0.168413394318942 
1733	 0.16944922653317 
1734	 0.172715406393057 
1735	 0.174972654232417 
1736	 0.181746672978995 
1737	 0.181057332481443 
1738	 0.175040136033647 
1739	 0.171336489870797 
1740	 0.169398887960941 
1741	 0.174676736805974 
1742	 0.177249872439206 
1743	 0.17705704267217 
1744	 0.180416402805808 
1745	 0.180689682786009 
1746	 0.18346916833789 
1747	 0.189042401524531 
1748	 0.18946824530434 
1749	 0.188598395744046 
1750	 0.185721265981748 
1751	 0.180817542423138 
1752	 0.181148217126958 
1753	 0.183726731966187 
1754	 0.18476076641945 
1755	 0.18996153506774 
1756	 0.191567926806462 
1757	 0.193081355712981 
1758	 0.197514252507481 
1759	 0.190129790475819 
1760	 0.184504723387706 
1761	 0.178418486749134 
1762	 0.166139981828709 
1763	 0.168293228905888 
1764	 0.173589159670459 
1765	 0.177344253546513 
1766	 0.176619370486365 
1767	 0.17560661544978 
1768	 0.176209599025357 
1769	 0.166308245358367 
1770	 0.177034012260603 
1771	 0.188113702718552 
1772	 0.189770382480799 
1773	 0.203459949791246 
1774	 0.203061470607524 
1775	 0.197473825808539 
1776	 0.185879823915583 
1777	 0.19054968180211 
1778	 0.198083636590033 
1779	 0.21457836600058 
1780	 0.246219598305563 
1781	 0.255351335472556 
1782	 0.261719755118809 
1783	 0.258413361872006 
1784	 0.236302546536354 
1785	 0.226403460231049 
1786	 0.231152979426518 
1787	 0.244867134369631 
1788	 0.26578436102951 
1789	 0.262072580641011 
1790	 0.209240079912938 
1791	 0.161268767602205 
1792	 0.142945639075967 
1793	 0.11093166357539 
1794	 0.176826084109827 
1795	 0.323564951281643 
1796	 0.470476926867888 
1797	 0.664122635608671 
1798	 0.707024814452685 
1799	 0.740387202016341 
1800	 0.68643217431263 
1801	 1.29198372460424 
1802	 1.24693266520346 
1803	 1.34795538354311 
1804	 1.26630367797551 
1805	 0.915982191804043 
1806	 0.828639352126024 
1807	 0.82391833740062 
1808	 0.864299363115472 
1809	 0.867436930019425 
1810	 1.00666604219199 
1811	 1.11196127612512 
1812	 1.12448056906485 
1813	 1.16318678500603 
1814	 1.45900381350224 
1815	 1.55757860832396 
1816	 1.54463569224997 
1817	 1.2612313380628 
1818	 1.11527684877446 
1819	 0.878249743437682 
1820	 0.787199838593356 
1821	 0.690581793557805 
1822	 0.691354435304444 
1823	 0.954995840292825 
1824	 0.989127959682639 
1825	 0.999569621439349 
1826	 0.864455581734832 
1827	 0.872842052455944 
1828	 0.769291606602905 
1829	 0.830700569173442 
1830	 1.26054205555691 
1831	 1.35398676045344 
1832	 1.24903298521326 
1833	 1.22248993637002 
1834	 0.887709394745993 
1835	 0.852906360412007 
1836	 0.927911942525384 
1837	 1.32147568791413 
1838	 1.43860964026555 
1839	 1.69722360931992 
1840	 1.71369322864457 
1841	 1.34247374144585 
1842	 1.29650630490796 
1843	 1.39361675863997 
1844	 1.37692237761631 
1845	 1.35494372919852 
1846	 1.32163227866389 
1847	 1.23315615444928 
1848	 1.03471037333711 
1849	 0.800526351321389 
1850	 0.430235798081556 
1851	 0.401695307688372 
1852	 0.563070274618724 
1853	 0.631239413122874 
1854	 0.953227864892683 
1855	 1.08456522226116 
1856	 1.12142891310408 
1857	 0.979708454672055 
1858	 1.01822167238903 
1859	 1.00454207775216 
1860	 1.09034195383234 
1861	 1.5270221920753 
1862	 1.6737684691713 
1863	 1.64731649798743 
1864	 1.5641119694381 
1865	 1.2597430036634 
1866	 1.12490406621711 
1867	 1.01968102846515 
1868	 0.933517194474333 
1869	 0.882636678054258 
1870	 0.716248096498534 
1871	 0.782298260346017 
1872	 1.21289516516034 
1873	 1.50611446734171 
1874	 2.20072645188295 
1875	 2.66702072615826 
1876	 2.94043373740861 
1877	 2.20193030893977 
1878	 2.04284696135576 
1879	 1.84702380668222 
1880	 1.59665131302439 
1881	 1.30814112605912 
1882	 1.23385273551168 
1883	 1.10235527072286 
1884	 1.14778496651203 
1885	 1.61144748576321 
1886	 1.81126102657784 
1887	 1.83481887278636 
1888	 2.08949983834433 
1889	 2.00823171737827 
1890	 1.60189917276041 
1891	 1.45288101964718 
1892	 1.28877372522624 
1893	 1.17799724120594 
1894	 1.03420152699026 
1895	 1.05480420546203 
1896	 1.33291776268402 
1897	 1.43778008482628 
1898	 1.68994591488574 
1899	 1.8440113057422 
1900	 1.87195032711873 
1901	 1.4302663047974 
1902	 1.25162233755559 
1903	 1.12136794118023 
1904	 1.00153912533606 
1905	 0.87609955096882 
1906	 0.877459488708946 
1907	 0.886747747455827 
1908	 1.11656607886067 
1909	 1.22190659392617 
1910	 1.19078062950996 
1911	 1.11968454744724 
1912	 0.886423694579613 
1913	 0.798690514922776 
1914	 0.69977584159929 
1915	 0.684919920143959 
1916	 0.658637562214697 
1917	 0.75478948949466 
1918	 1.00379397993795 
1919	 1.68676208483236 
1920	 1.85378011685436 
1921	 1.69669338803321 
1922	 1.48577895318017 
1923	 0.987768913548727 
1924	 0.969488680905062 
1925	 1.01293088822693 
1926	 1.09072424268537 
1927	 1.59537149065361 
1928	 1.91111015401999 
1929	 2.35404775251729 
1930	 2.55110343883191 
1931	 1.92100982187761 
1932	 1.52515659418548 
1933	 1.02920760426558 
1934	 0.779112322618127 
1935	 0.771770078728792 
1936	 1.13392882827712 
1937	 1.11505348617771 
1938	 1.15514520562907 
1939	 1.14024888636353 
1940	 0.839119592803362 
1941	 0.719946183737489 
1942	 0.914761404473562 
1943	 0.974954980767042 
1944	 1.14550415167476 
1945	 1.30730289162102 
1946	 1.27557264093325 
1947	 1.06315600308999 
1948	 1.01738881352497 
1949	 0.91647760245898 
1950	 0.859653275978434 
1951	 0.834719674454238 
1952	 0.849766951136177 
1953	 0.945251054675826 
1954	 0.992761117948402 
1955	 0.976404396077369 
1956	 1.0375827039893 
1957	 1.07745342063914 
1958	 1.05753852765901 
1959	 0.996671632071276 
1960	 0.913895492680709 
1961	 0.8787424881184 
1962	 0.778747850420488 
1963	 0.758299545103579 
1964	 0.866499787808399 
1965	 0.807915572129545 
1966	 0.770793040904733 
1967	 0.806996284970555 
1968	 0.766094956269421 
1969	 0.823982072911508 
1970	 0.82997342072262 
1971	 0.857445889871118 
1972	 0.808164804734082 
1973	 0.701646154852397 
1974	 0.641739060546111 
1975	 0.582506660223974 
1976	 0.515608128879819 
1977	 0.44595436105209 
1978	 0.412774749113622 
1979	 0.394415637529414 
1980	 0.362918997342243 
1981	 0.343987662495331 
1982	 0.324390469925018 
1983	 0.333767126120699 
1984	 0.338823575361769 
1985	 0.365262077944909 
1986	 0.475143543868082 
1987	 0.483231235152425 
1988	 0.432064714371159 
1989	 0.406747941258928 
1990	 0.391035615985229 
1991	 0.36762470139983 
1992	 0.410299656431771 
1993	 0.48043934407155 
1994	 0.476315131387118 
1995	 0.49904102720217 
1996	 0.48899635141302 
1997	 0.39710497967079 
1998	 0.375630480680946 
1999	 0.391652642492615 
2000	 0.383307156303083 
2001	 0.379440053030792 
2002	 0.440971441533936 
2003	 0.440690466600718 
2004	 0.432363084112667 
2005	 0.560970397291783 
2006	 0.520633120336417 
2007	 0.459856426273161 
2008	 0.455522028923086 
2009	 0.47001639582289 
2010	 0.480606540724927 
2011	 0.519656284573349 
2012	 0.64974705007171 
2013	 0.661577150214258 
2014	 0.603073708828634 
2015	 0.586716895173548 
2016	 0.496682206340631 
2017	 0.411446641891824 
2018	 0.404829715086928 
2019	 0.382322211280254 
2020	 0.406870184915081 
2021	 0.372320892635234 
2022	 0.301291131922691 
2023	 0.240320766624344 
2024	 0.220619387917985 
2025	 0.192785150517014 
2026	 0.215612807658299 
2027	 0.288094608818433 
2028	 0.34496255342011 
2029	 0.366889636349092 
2030	 0.379966388195092 
2031	 0.375441268425488 
2032	 0.368801512113314 
2033	 0.34871645936911 
2034	 0.335894653397966 
2035	 0.319601247317692 
2036	 0.305481935280483 
2037	 0.293817846790484 
2038	 0.284955080220778 
2039	 0.281202412045076 
2040	 0.270935733439033 
2041	 0.263435666462152 
2042	 0.260104203559115 
2043	 0.292036946464043 
2044	 0.299967686773773 
2045	 0.316111003419189 
2046	 0.316700010712038 
2047	 0.304738742622691 
2048	 0.275139491212647 
2049	 0.236310550689011 
2050	 0.218460743028133 
2051	 0.214649488668201 
2052	 0.212375239631273 
2053	 0.229664848098434 
2054	 0.244327962581304 
2055	 0.276041434059747 
2056	 0.254951687785851 
2057	 0.264583442926786 
2058	 0.280551577596237 
2059	 0.242788776363876 
2060	 0.267666017463091 
2061	 0.279283637433064 
2062	 0.25174471458793 
2063	 0.281104833520224 
2064	 0.275097449144854 
2065	 0.272274277633292 
2066	 0.285779576276227 
2067	 0.29921882231103 
2068	 0.343695046963481 
2069	 0.34907732505993 
2070	 0.336517089605954 
2071	 0.322307966012016 
2072	 0.305740292666893 
2073	 0.246647725493577 
2074	 0.227369997532038 
2075	 0.236821720174749 
2076	 0.236144648607815 
2077	 0.260924990167085 
2078	 0.263359074969008 
2079	 0.253522246751388 
2080	 0.277996386772792 
2081	 0.282339747198537 
2082	 0.296951837515832 
2083	 0.351717709823928 
2084	 0.355677595042215 
2085	 0.328398300015525 
2086	 0.310843199977242 
2087	 0.28546123881376 
2088	 0.287054716201172 
2089	 0.307207399438205 
2090	 0.319701141188557 
2091	 0.310008748609872 
2092	 0.268970172623018 
2093	 0.259169872344951 
2094	 0.275040129156576 
2095	 0.286818048395101 
2096	 0.294733525603378 
2097	 0.281927607510121 
2098	 0.270635062041956 
2099	 0.270293553963124 
2100	 0.294087015702608 
2101	 0.301388131555157 
2102	 0.315032627677192 
2103	 0.295946381897329 
2104	 0.290467671583097 
2105	 0.299873157399522 
2106	 0.304689912526646 
2107	 0.304902859848111 
2108	 0.286157628652026 
2109	 0.255789316429576 
2110	 0.210214587744527 
2111	 0.188705351954652 
2112	 0.201191858048928 
2113	 0.195023548576136 
2114	 0.189206695206616 
2115	 0.199910709328299 
2116	 0.196446556141912 
2117	 0.16501220993087 
2118	 0.169637834378925 
2119	 0.189829209084059 
2120	 0.219876495230029 
2121	 0.263857606178148 
2122	 0.295275919111767 
2123	 0.317649188812785 
2124	 0.308139938296759 
2125	 0.273426230111269 
2126	 0.249941174004933 
2127	 0.201543290609282 
2128	 0.17771494917342 
2129	 0.185932796767211 
2130	 0.179428821758238 
2131	 0.206539383745324 
2132	 0.236315583812447 
2133	 0.251136095679075 
2134	 0.264540310651823 
2135	 0.270596619012892 
2136	 0.267796065199372 
2137	 0.25605649432566 
2138	 0.239347847020132 
2139	 0.236609266911703 
2140	 0.233128614541332 
2141	 0.221453798085906 
2142	 0.223332399758043 
2143	 0.212716557538083 
2144	 0.187705698532928 
2145	 0.194896649146795 
2146	 0.222051765129143 
2147	 0.237744742237239 
2148	 0.263918726372538 
2149	 0.284163793574514 
2150	 0.289637312994331 
2151	 0.262872546007018 
2152	 0.268885566097325 
2153	 0.284862871362687 
2154	 0.289260707160466 
2155	 0.296805445815019 
2156	 0.32047677919243 
2157	 0.30842183427127 
2158	 0.302690987812486 
2159	 0.328406420293657 
2160	 0.315623546148027 
2161	 0.304281177937031 
2162	 0.320605556074546 
2163	 0.287406277648088 
2164	 0.254061578421778 
2165	 0.256644293423796 
2166	 0.226316410681947 
2167	 0.208130550223435 
2168	 0.227169238330784 
2169	 0.235296272733327 
2170	 0.245025714334364 
2171	 0.25622923846902 
2172	 0.286684566022952 
2173	 0.286989675488692 
2174	 0.254611522861712 
2175	 0.255018320823896 
2176	 0.266837443653972 
2177	 0.257737751219161 
2178	 0.259598996056022 
2179	 0.277580784281208 
2180	 0.263547220134484 
2181	 0.229423150045915 
2182	 0.221091721585358 
2183	 0.234139211675205 
2184	 0.248768148506241 
2185	 0.292645933492547 
2186	 0.332280668732775 
2187	 0.336248407385438 
2188	 0.320436040930107 
2189	 0.290323571729729 
2190	 0.263568157526254 
2191	 0.262605662307265 
2192	 0.272668730365263 
2193	 0.311602584527373 
2194	 0.342910435651603 
2195	 0.386976869401737 
2196	 0.395936662919902 
2197	 0.393617259877418 
2198	 0.388940291592665 
2199	 0.340016365046823 
2200	 0.334622513055407 
2201	 0.329840117026069 
2202	 0.302968171469428 
2203	 0.321864479622009 
2204	 0.307895693873296 
2205	 0.287942743951516 
2206	 0.310216404406513 
2207	 0.297884044261198 
2208	 0.294243879897114 
2209	 0.292509201692139 
2210	 0.256749710401189 
2211	 0.234243495527235 
2212	 0.219254057239552 
2213	 0.220939036024324 
2214	 0.214147240826511 
2215	 0.21326795356264 
2216	 0.212508929764896 
2217	 0.226731337797001 
2218	 0.25785676044986 
2219	 0.290188497982931 
2220	 0.343756008400847 
2221	 0.357079171208691 
2222	 0.3612959195481 
2223	 0.332480486746848 
2224	 0.272056090537321 
2225	 0.237208370882969 
2226	 0.234696819206775 
2227	 0.238788943781238 
2228	 0.254395565161551 
2229	 0.278137487770099 
2230	 0.264695824508962 
2231	 0.232175502481211 
2232	 0.231524415458835 
2233	 0.241587236573387 
2234	 0.273412013212864 
2235	 0.324303184897072 
2236	 0.336075046977285 
2237	 0.299048384271121 
2238	 0.26773598986483 
2239	 0.225596225701796 
2240	 0.194153165309255 
2241	 0.221668416857778 
2242	 0.239728155991558 
2243	 0.277137533280314 
2244	 0.30292548108981 
2245	 0.334875984974345 
2246	 0.338334788164203 
2247	 0.308090847753368 
2248	 0.305075481761838 
2249	 0.306559037237353 
2250	 0.310746447722262 
2251	 0.339269553156067 
2252	 0.342811907390866 
2253	 0.306734846035925 
2254	 0.314571939675106 
2255	 0.304996753648148 
2256	 0.297049187473538 
2257	 0.357290322311615 
2258	 0.362541596998212 
2259	 0.374085921596461 
2260	 0.417335959329422 
2261	 0.399334417104863 
2262	 0.384094315275609 
2263	 0.368701965556039 
2264	 0.341398848148923 
2265	 0.342285743059614 
2266	 0.348246723983358 
2267	 0.361134424619423 
2268	 0.394435367288263 
2269	 0.370567309786042 
2270	 0.357451773323235 
2271	 0.362877064736892 
2272	 0.348976182861122 
2273	 0.348401205340674 
2274	 0.406681167789898 
2275	 0.419968659418118 
2276	 0.417817547356895 
2277	 0.380827457258389 
2278	 0.32018763596538 
2279	 0.277264896783556 
2280	 0.19552162289889 
2281	 0.1749504822771 
2282	 0.175471161746586 
2283	 0.173912581003733 
2284	 0.205847796323453 
2285	 0.224920303494709 
2286	 0.207676379005235 
2287	 0.228801901939418 
2288	 0.258893726549429 
2289	 0.222036499235492 
2290	 0.19019130925114 
2291	 0.232270848280414 
2292	 0.261552331352445 
2293	 0.32031864902473 
2294	 0.379902725692234 
2295	 0.364815735955207 
2296	 0.311482399213096 
2297	 0.243404061353208 
2298	 0.249858227829981 
2299	 0.254659951005047 
2300	 0.224600386300318 
2301	 0.230233654960786 
2302	 0.225706354613433 
2303	 0.229696403169134 
2304	 0.279038202739338 
2305	 0.345690103192973 
2306	 0.362964819527542 
2307	 0.399931739024985 
2308	 0.421327932039435 
2309	 0.42255446310542 
2310	 0.418894744204823 
2311	 0.408705783197151 
2312	 0.386885696250791 
2313	 0.347530115963331 
2314	 0.340868203996206 
2315	 0.31581780565593 
2316	 0.333696168762539 
2317	 0.409746578106313 
2318	 0.421288689004486 
2319	 0.482396967337547 
2320	 0.475549407028391 
2321	 0.375657805087794 
2322	 0.351560292400728 
2323	 0.316263993560437 
2324	 0.285266037018624 
2325	 0.286226277779455 
2326	 0.257646489521952 
2327	 0.210917584048395 
2328	 0.187210491604574 
2329	 0.147679332048857 
2330	 0.154682118715346 
2331	 0.186733177802931 
2332	 0.231959585967017 
2333	 0.299912996677907 
2334	 0.348434093788949 
2335	 0.427990280403083 
2336	 0.472846670471015 
2337	 0.449604890997993 
2338	 0.429622524924868 
2339	 0.333561990946599 
2340	 0.180170739839664 
2341	 0.136056526187483 
2342	 0.208096739876357 
2343	 0.283979503484666 
2344	 0.360517126799383 
2345	 0.373257758430635 
2346	 0.357283491864915 
2347	 0.345213803406 
2348	 0.305774021130596 
2349	 0.373452472017093 
2350	 0.512983612015284 
2351	 0.663742148694239 
2352	 0.847963731163561 
2353	 0.827496174851295 
2354	 0.765716674899759 
2355	 0.727531461234761 
2356	 0.684792436758695 
2357	 0.697999312118067 
2358	 0.716523235793734 
2359	 0.641873747258592 
2360	 0.526743647585049 
2361	 0.488084216780634 
2362	 0.412605843577129 
2363	 0.376472995833827 
2364	 0.412197335969432 
2365	 0.405986240856376 
2366	 0.42469144639988 
2367	 0.506993827501236 
2368	 0.555264773208868 
2369	 0.664933084927937 
2370	 0.82347897301957 
2371	 0.728427209763454 
2372	 0.427595491972044 
2373	 0.35569756587292 
2374	 0.241941376508103 
2375	 0.261412048866417 
2376	 0.456553584302929 
2377	 0.560327293745378 
2378	 0.691354690677846 
2379	 0.810541266044401 
2380	 0.947493847024961 
2381	 0.997193021758063 
2382	 1.02392483343937 
2383	 0.942878699811704 
2384	 0.740857908339813 
2385	 0.68635647799945 
2386	 0.618953433741196 
2387	 0.581519882632822 
2388	 0.610558543546666 
2389	 0.587388140394802 
2390	 0.514462294352015 
2391	 0.544929054793805 
2392	 0.627820249551915 
2393	 0.666052171570454 
2394	 0.797769183340314 
2395	 0.774198287107396 
2396	 0.622498021651237 
2397	 0.600021080111911 
2398	 0.604509094952305 
2399	 0.570440220038861 
2400	 0.500787009626164 
2401	 0.53981597897015 
2402	 0.598661895250881 
2403	 0.646654976860794 
2404	 0.945972822002256 
2405	 0.968759587696152 
2406	 0.68230694809439 
2407	 0.675916291218187 
2408	 0.72185426431485 
2409	 0.712997966533538 
2410	 0.769141835872138 
2411	 0.835934900101116 
2412	 0.845045730606052 
2413	 0.823403733645929 
2414	 0.857412781073048 
2415	 0.917137637340399 
2416	 0.879836615986265 
2417	 0.897371936704926 
2418	 1.04027274373911 
2419	 1.06798783581646 
2420	 0.980143266341665 
2421	 1.00889315735394 
2422	 1.18922034576705 
2423	 1.13633356569257 
2424	 1.01771304832468 
2425	 0.927245416353429 
2426	 0.696055953388371 
2427	 0.637724150971527 
2428	 0.628453969244465 
2429	 0.69127391030256 
2430	 1.04930573868178 
2431	 1.00133006852565 
2432	 0.765588750544718 
2433	 0.833991713456533 
2434	 0.856166224039715 
2435	 0.952927850161344 
2436	 1.41692333553864 
2437	 1.29499446356261 
2438	 0.879049525577303 
2439	 0.840106394247458 
2440	 0.749467473683588 
2441	 0.749741967653196 
2442	 1.00676520148231 
2443	 1.27747334570977 
2444	 1.49881524679519 
2445	 1.77415325449883 
2446	 2.70697531383426 
2447	 3.14469466593997 
2448	 2.76773000350725 
2449	 2.24547733831642 
2450	 1.85865944422362 
2451	 1.67840939668579 
2452	 1.16873585899281 
2453	 0.982862365590905 
2454	 0.903496102455941 
2455	 0.61155728872318 
2456	 0.458122646001606 
2457	 0.421110357015723 
2458	 0.397335121284599 
2459	 0.96298698207604 
2460	 1.39108418232418 
2461	 1.39161869028937 
2462	 1.42973373755401 
2463	 1.392852607854 
2464	 1.32897677788384 
2465	 1.0628806642802 
2466	 1.05781887893483 
2467	 1.23047603348952 
2468	 1.33163772305863 
2469	 1.82970467504761 
2470	 2.20193178817102 
2471	 1.98502799088654 
2472	 2.0504837575321 
2473	 2.13404171972632 
2474	 2.29014882579756 
2475	 2.80132455781364 
2476	 2.68336992711348 
2477	 2.37213391226353 
2478	 2.17147504865015 
2479	 1.66389428505556 
2480	 1.71857992003278 
2481	 2.55164475786598 
2482	 2.63418865579223 
2483	 2.82184896085935 
2484	 2.69481643683873 
2485	 1.19496083793025 
2486	 0.929794168751544 
2487	 1.30023365627067 
2488	 1.17378297421875 
2489	 0.833891941302016 
2490	 0.864088862764039 
2491	 1.009519006074 
2492	 0.995973184620194 
2493	 1.02101008728146 
2494	 1.15206350895763 
2495	 1.35808611573385 
2496	 1.31921362199464 
2497	 1.49856771610282 
2498	 1.37376643702613 
2499	 0.958217317161414 
2500	 0.869134274456821 
