Wavelength	000002.asd
350	 2.70552678607529E-02 
351	 2.80830126827864E-02 
352	 2.98453119419898E-02 
353	 2.80986371212055E-02 
354	 2.88411319480145E-02 
355	 2.76471277014998E-02 
356	 2.51526335790314E-02 
357	 2.69435116789507E-02 
358	 2.86674601837068E-02 
359	 2.88909983413097E-02 
360	 2.78535410189675E-02 
361	 0.027379992609327 
362	 2.85611506136757E-02 
363	 2.89251218502873E-02 
364	 2.73527643552045E-02 
365	 2.82681281772327E-02 
366	 2.84126613381979E-02 
367	 2.79987683380601E-02 
368	 0.028227057380563 
369	 2.83874606424535E-02 
370	 2.89358495257415E-02 
371	 2.91579026552616E-02 
372	 2.79497247382055E-02 
373	 2.86839925392415E-02 
374	 2.91091979810115E-02 
375	 2.86213765958646E-02 
376	 2.94319882258002E-02 
377	 2.87806192710824E-02 
378	 2.84175326028297E-02 
379	 2.96690008459284E-02 
380	 3.05707995379911E-02 
381	 2.99613825141701E-02 
382	 2.88519203245847E-02 
383	 2.87448077380311E-02 
384	 2.88987370118368E-02 
385	 2.93225296962175E-02 
386	 2.94725052057988E-02 
387	 0.02875971595706 
388	 2.92866855894166E-02 
389	 2.96881550080504E-02 
390	 2.93359091343931E-02 
391	 2.89749586540386E-02 
392	 0.029223996656419 
393	 3.00606144057452E-02 
394	 3.08683531762644E-02 
395	 3.00372970596593E-02 
396	 2.99923261338979E-02 
397	 3.05420816561827E-02 
398	 3.07557971393428E-02 
399	 3.03385058647886E-02 
400	 3.02154067680976E-02 
401	 3.03314695944207E-02 
402	 3.01449858016748E-02 
403	 3.05320793513548E-02 
404	 3.10049620056852E-02 
405	 3.12103215575692E-02 
406	 3.11563217814424E-02 
407	 3.09119960571938E-02 
408	 3.09656615411669E-02 
409	 3.14126805915066E-02 
410	 3.10313533086287E-02 
411	 3.11309776242952E-02 
412	 0.031357453782939 
413	 3.09664635496884E-02 
414	 0.031135070536241 
415	 3.13001984793709E-02 
416	 3.13361045397882E-02 
417	 3.15543162032219E-02 
418	 3.13972049320626E-02 
419	 0.031276214897467 
420	 3.14196661564426E-02 
421	 3.14124391642901E-02 
422	 3.18030247518384E-02 
423	 3.21408078829775E-02 
424	 3.19111674816844E-02 
425	 3.15406571842828E-02 
426	 3.14220990314016E-02 
427	 3.16185426720138E-02 
428	 3.18799825122982E-02 
429	 3.14049453873954E-02 
430	 3.11770154725069E-02 
431	 3.15434417708046E-02 
432	 3.17107207205205E-02 
433	 3.17637496313085E-02 
434	 3.17743105141229E-02 
435	 3.17818719629137E-02 
436	 3.16573011704693E-02 
437	 3.18323813656116E-02 
438	 0.032039518114203 
439	 3.18170876038671E-02 
440	 3.18192811374338E-02 
441	 3.18720396458227E-02 
442	 3.19020779226111E-02 
443	 3.20195751637273E-02 
444	 3.21049857955842E-02 
445	 0.032127648578987 
446	 3.21110845613689E-02 
447	 3.21631096282405E-02 
448	 3.21851649163454E-02 
449	 3.22063058748696E-02 
450	 3.22903366390671E-02 
451	 3.23643740278041E-02 
452	 3.24593505537041E-02 
453	 3.25164337009763E-02 
454	 3.24015313413507E-02 
455	 3.27815538205873E-02 
456	 3.30243780604813E-02 
457	 3.27713898291162E-02 
458	 3.30322970944128E-02 
459	 3.31561118183656E-02 
460	 3.31550164588422E-02 
461	 3.32357265866124E-02 
462	 3.30634123030537E-02 
463	 3.30052967216496E-02 
464	 3.31047628205734E-02 
465	 0.033035577325345 
466	 3.31202972442998E-02 
467	 3.31667083623612E-02 
468	 3.30671862476912E-02 
469	 3.32135824443382E-02 
470	 3.31816235391989E-02 
471	 3.30153351845475E-02 
472	 3.29495574598484E-02 
473	 3.30676792592454E-02 
474	 3.30285726531342E-02 
475	 0.032931484233466 
476	 3.33231649210162E-02 
477	 3.32468136125154E-02 
478	 3.31793758623209E-02 
479	 3.34241784503236E-02 
480	 3.29751893210876E-02 
481	 3.30707533520244E-02 
482	 3.35803512030511E-02 
483	 3.37701803539359E-02 
484	 3.34379302071234E-02 
485	 0.033346652582614 
486	 3.36199195865063E-02 
487	 3.34975591817441E-02 
488	 3.39334014733565E-02 
489	 3.42180260091318E-02 
490	 3.38612368975473E-02 
491	 3.39401523063891E-02 
492	 0.034264835649707 
493	 0.034634445364138 
494	 3.48446700590289E-02 
495	 0.034946932272197 
496	 3.50508137560185E-02 
497	 0.035225770710594 
498	 3.54772942058284E-02 
499	 3.59126698856122E-02 
500	 3.63335762618426E-02 
501	 3.66370274260449E-02 
502	 3.73764866087491E-02 
503	 3.77314191663613E-02 
504	 0.037982875449681 
505	 3.89629539459355E-02 
506	 3.99079512965642E-02 
507	 4.05331954776186E-02 
508	 4.11039401292148E-02 
509	 4.26608665700113E-02 
510	 4.34936565891258E-02 
511	 4.42363945256828E-02 
512	 4.57978572137799E-02 
513	 4.72840673934917E-02 
514	 4.88004606852934E-02 
515	 5.02854681248799E-02 
516	 5.15701615905735E-02 
517	 0.05324779831803 
518	 5.52678125137566E-02 
519	 5.73753870994511E-02 
520	 0.059214412648781 
521	 6.12371046372934E-02 
522	 6.31482189983008E-02 
523	 6.46681988182587E-02 
524	 6.69515050457684E-02 
525	 6.89007584208294E-02 
526	 7.04250231076256E-02 
527	 7.24895059483687E-02 
528	 0.074272019414802 
529	 7.56169881351505E-02 
530	 0.076691795863602 
531	 7.80703784946088E-02 
532	 7.92460083977916E-02 
533	 8.02814386974511E-02 
534	 8.14178481095766E-02 
535	 8.21411320601719E-02 
536	 8.27162519482612E-02 
537	 8.33240086787814E-02 
538	 0.083929865987702 
539	 8.44742015831114E-02 
540	 8.49336582622357E-02 
541	 8.52964483514634E-02 
542	 8.55492279643141E-02 
543	 8.56091093290919E-02 
544	 8.56979340084198E-02 
545	 8.61755488668892E-02 
546	 8.66390980759248E-02 
547	 8.70615823724176E-02 
548	 8.74333326690774E-02 
549	 8.76804822521374E-02 
550	 8.78826004532235E-02 
551	 8.80197872204152E-02 
552	 0.088048410012752 
553	 8.79780746732867E-02 
554	 8.78851616916615E-02 
555	 0.087755700411891 
556	 8.74822521307283E-02 
557	 8.69048964184578E-02 
558	 8.62933574597935E-02 
559	 8.58054470537168E-02 
560	 8.50383901144412E-02 
561	 0.084107863464998 
562	 8.31617476134995E-02 
563	 8.23045363913018E-02 
564	 8.11921726087738E-02 
565	 7.99338205110961E-02 
566	 7.86125487488928E-02 
567	 7.71974943705286E-02 
568	 7.60052159942592E-02 
569	 7.48710029097802E-02 
570	 7.35583701957442E-02 
571	 7.21268486385697E-02 
572	 7.08641588261442E-02 
573	 6.97116860643579E-02 
574	 6.83750562351282E-02 
575	 6.74019372317569E-02 
576	 6.65727366319425E-02 
577	 6.56757264833296E-02 
578	 6.47813149395015E-02 
579	 6.39756063584622E-02 
580	 6.33455670345909E-02 
581	 6.29034593706757E-02 
582	 6.23139474185346E-02 
583	 6.17986246212934E-02 
584	 6.13341490510995E-02 
585	 6.05801086235229E-02 
586	 6.00576269691706E-02 
587	 5.96391840280267E-02 
588	 5.90443519453419E-02 
589	 5.80901224978771E-02 
590	 5.76016767304978E-02 
591	 5.74898962434354E-02 
592	 5.70652891312882E-02 
593	 5.70746677291052E-02 
594	 5.68102414590557E-02 
595	 0.056091679174647 
596	 5.58827850859865E-02 
597	 5.59694364543858E-02 
598	 5.61467192957217E-02 
599	 5.61750138399991E-02 
600	 5.57335404467145E-02 
601	 5.54034724458099E-02 
602	 5.52874663416283E-02 
603	 5.50376663620016E-02 
604	 5.47037667084888E-02 
605	 5.43413751710709E-02 
606	 5.40125928457154E-02 
607	 5.38091826703165E-02 
608	 5.34974669419364E-02 
609	 5.29918426857519E-02 
610	 5.23488052804301E-02 
611	 5.20003355859856E-02 
612	 5.15224968366802E-02 
613	 0.050832376465171 
614	 5.04471960253414E-02 
615	 5.01250345298514E-02 
616	 4.96637413810075E-02 
617	 4.90353108854359E-02 
618	 4.88439652767069E-02 
619	 4.84289507122067E-02 
620	 4.79459854014447E-02 
621	 4.80786729107244E-02 
622	 0.047787693201971 
623	 4.74574773431054E-02 
624	 4.73626648030102E-02 
625	 0.046992844921183 
626	 4.68416120367331E-02 
627	 4.69383189552827E-02 
628	 4.70679123750412E-02 
629	 4.67650416132424E-02 
630	 4.66530993057767E-02 
631	 4.67527982052839E-02 
632	 4.63609996204474E-02 
633	 4.63310837109615E-02 
634	 4.64481096050902E-02 
635	 4.63194488157421E-02 
636	 4.57463365028346E-02 
637	 4.52349417993572E-02 
638	 4.48050651805513E-02 
639	 4.42402214720129E-02 
640	 4.41513993846933E-02 
641	 4.37492116383776E-02 
642	 4.28338103689855E-02 
643	 4.24204512084126E-02 
644	 0.042279532226966 
645	 4.18462691813107E-02 
646	 4.07326866395741E-02 
647	 4.01859466525582E-02 
648	 3.96377145784103E-02 
649	 3.91899767848224E-02 
650	 3.94692024067764E-02 
651	 3.93783590055826E-02 
652	 3.91271140832423E-02 
653	 3.89745436214325E-02 
654	 3.87416013450315E-02 
655	 3.84895974034022E-02 
656	 0.038155489701394 
657	 3.77673912524627E-02 
658	 3.78369145877561E-02 
659	 3.78584974191396E-02 
660	 3.76200087112415E-02 
661	 3.72683130995922E-02 
662	 3.72122351732806E-02 
663	 3.72324159403399E-02 
664	 3.70512981371093E-02 
665	 3.66781283057461E-02 
666	 3.65269295064088E-02 
667	 3.65090488324214E-02 
668	 3.62849976441825E-02 
669	 3.61766553630903E-02 
670	 3.63929063051904E-02 
671	 3.67965810649847E-02 
672	 3.67099228710905E-02 
673	 3.67008005936508E-02 
674	 3.68579700655302E-02 
675	 3.71307358304497E-02 
676	 3.75792301122727E-02 
677	 3.76072284824018E-02 
678	 3.74044502392878E-02 
679	 3.77726463710446E-02 
680	 3.86548497998891E-02 
681	 3.93122141866488E-02 
682	 0.039488875435305 
683	 4.02017223237607E-02 
684	 4.07916135050585E-02 
685	 4.13402381986411E-02 
686	 4.23019739048234E-02 
687	 4.40812047715067E-02 
688	 4.60886047782763E-02 
689	 4.75794020639832E-02 
690	 0.048542062418477 
691	 5.03624256045292E-02 
692	 5.30369089809932E-02 
693	 5.63983752972988E-02 
694	 5.99680401598098E-02 
695	 6.41572013394757E-02 
696	 6.86652664963759E-02 
697	 7.33254736290271E-02 
698	 7.79322484324471E-02 
699	 8.37178026567728E-02 
700	 9.06005248903272E-02 
701	 9.68968029860885E-02 
702	 0.10356367599892 
703	 0.110357969910277 
704	 0.117227059571002 
705	 0.124762005934564 
706	 0.13194235613123 
707	 0.139004756154736 
708	 0.146897680956951 
709	 0.154289611692588 
710	 0.161875198772206 
711	 0.169955832351231 
712	 0.178161845047981 
713	 0.185939761350783 
714	 0.193682948509408 
715	 0.201716431342516 
716	 0.208594182485354 
717	 0.216524548186598 
718	 0.226277236528166 
719	 0.236369157990382 
720	 0.246748066589641 
721	 0.25593625002079 
722	 0.263980207581172 
723	 0.27100019759767 
724	 0.279856320011353 
725	 0.28943811167196 
726	 0.297865620484691 
727	 0.30707605902155 
728	 0.31544876011167 
729	 0.323060473358672 
730	 0.330976485125053 
731	 0.339678399544098 
732	 0.348670095147085 
733	 0.356822232552747 
734	 0.362885003463748 
735	 0.369489579662734 
736	 0.37653789163845 
737	 0.383068412596962 
738	 0.389551071746637 
739	 0.395764119921547 
740	 0.401507752732414 
741	 0.406703770765329 
742	 0.412086449613458 
743	 0.416953287108584 
744	 0.42116006158949 
745	 0.425488318910493 
746	 0.429207583981874 
747	 0.432525761050448 
748	 0.435833052275191 
749	 0.439249687200217 
750	 0.442240135733629 
751	 0.444790057300482 
752	 0.44723859172784 
753	 0.449784089647563 
754	 0.451972267629327 
755	 0.45370454164706 
756	 0.45543122127836 
757	 0.456777115585996 
758	 0.457493029581435 
759	 0.457545052208514 
760	 0.45797601111884 
761	 0.458899315089014 
762	 0.459814000153498 
763	 0.460687809809775 
764	 0.462508771654089 
765	 0.464687733295834 
766	 0.466491325795297 
767	 0.467587155046263 
768	 0.468346529855319 
769	 0.469076629876611 
770	 0.469904440074045 
771	 0.470676299953338 
772	 0.471433289024612 
773	 0.471976533040866 
774	 0.472179521225266 
775	 0.472740764703333 
776	 0.473019400475107 
777	 0.473223430759704 
778	 0.474203053993421 
779	 0.474525713796667 
780	 0.474644851372679 
781	 0.475004678041315 
782	 0.475495403945846 
783	 0.475684740886415 
784	 0.475722178222571 
785	 0.475855855118975 
786	 0.475946106282388 
787	 0.475810717714424 
788	 0.475606449351669 
789	 0.475707839488902 
790	 0.476132578228618 
791	 0.476672164873995 
792	 0.477243576850364 
793	 0.477943784821993 
794	 0.477945051363881 
795	 0.477663612003664 
796	 0.477667524804813 
797	 0.478298544899603 
798	 0.478381174769295 
799	 0.478131324858993 
800	 0.478192984911274 
801	 0.478422697534115 
802	 0.478562165268394 
803	 0.478826616160981 
804	 0.479665497368775 
805	 0.480304306932006 
806	 0.480581979598785 
807	 0.480584412719568 
808	 0.48059271014094 
809	 0.480168728475324 
810	 0.479398929591059 
811	 0.47855077631282 
812	 0.478052493254852 
813	 0.477090460926106 
814	 0.476060587781763 
815	 0.475878334727956 
816	 0.475502840720272 
817	 0.475804419309351 
818	 0.476894244247315 
819	 0.478137389157606 
820	 0.478705729516617 
821	 0.47903413762787 
822	 0.479281308738157 
823	 0.479114072205922 
824	 0.480136152457089 
825	 0.480971829484168 
826	 0.480742368105592 
827	 0.480610601135134 
828	 0.481147188740039 
829	 0.48154836770347 
830	 0.48108902979571 
831	 0.481870071131269 
832	 0.482375296820866 
833	 0.482813323454989 
834	 0.48406684653023 
835	 0.484416509026678 
836	 0.484572692189605 
837	 0.485152472836153 
838	 0.486357202972671 
839	 0.486573433063207 
840	 0.486619695286756 
841	 0.487093140713488 
842	 0.487567511600691 
843	 0.488207004509331 
844	 0.488640379065948 
845	 0.488676761335807 
846	 0.488900829333703 
847	 0.489598455566756 
848	 0.489953719755011 
849	 0.489245428450224 
850	 0.48946199912582 
851	 0.490104818960416 
852	 0.490234203033502 
853	 0.489194904388419 
854	 0.489983260541152 
855	 0.491006964202717 
856	 0.491367541500018 
857	 0.491398902498281 
858	 0.491220119937704 
859	 0.491574337975239 
860	 0.492349347386692 
861	 0.492105913267844 
862	 0.492424004350557 
863	 0.49263707170448 
864	 0.492212849764209 
865	 0.492181382861659 
866	 0.492761492544684 
867	 0.493381654233801 
868	 0.493451586117284 
869	 0.493433615102227 
870	 0.493322830368703 
871	 0.493530942127148 
872	 0.494340841149638 
873	 0.494657128262375 
874	 0.494096981350401 
875	 0.493555330929797 
876	 0.494359927217123 
877	 0.494692814529975 
878	 0.494443716074382 
879	 0.494212729892648 
880	 0.49493608012674 
881	 0.495562801217405 
882	 0.495075923496784 
883	 0.494105864110538 
884	 0.49509764785344 
885	 0.495161126400402 
886	 0.494813615689962 
887	 0.494665797655661 
888	 0.494311991445881 
889	 0.495065541578388 
890	 0.4953544277266 
891	 0.494122456825435 
892	 0.493562924262201 
893	 0.492291322561328 
894	 0.49053976655764 
895	 0.489112695233619 
896	 0.48849910602655 
897	 0.488549423601113 
898	 0.488151474954972 
899	 0.486790613273295 
900	 0.488364041816395 
901	 0.48801581564628 
902	 0.487296205553833 
903	 0.48899535494344 
904	 0.488595521970661 
905	 0.486688330370547 
906	 0.485682081115765 
907	 0.487505766929471 
908	 0.484248368786575 
909	 0.482644890853476 
910	 0.483910746586403 
911	 0.483959848018762 
912	 0.484871927842952 
913	 0.482926917081243 
914	 0.480365276810114 
915	 0.483016600760063 
916	 0.482544794656088 
917	 0.484087377617653 
918	 0.487219602473367 
919	 0.486932597370324 
920	 0.486507784532237 
921	 0.487982159286361 
922	 0.489596592821968 
923	 0.486732674280072 
924	 0.48455487116311 
925	 0.482540129749902 
926	 0.479712498649125 
927	 0.475712767821402 
928	 0.47311960017787 
929	 0.468467656313487 
930	 0.461411920163383 
931	 0.463205422089702 
932	 0.470034464081451 
933	 0.458212207025709 
934	 0.432813139735334 
935	 0.454867794043066 
936	 0.449365280188532 
937	 0.444210949322238 
938	 0.452014996359114 
939	 0.450211086000425 
940	 0.448762760375462 
941	 0.440193847194169 
942	 0.433873704603589 
943	 0.457279956222247 
944	 0.441746391426316 
945	 0.42889213015174 
946	 0.441904755299774 
947	 0.449499520239213 
948	 0.429409986572779 
949	 0.426730252792103 
950	 0.444757698019879 
951	 0.439390270963204 
952	 0.452306819420424 
953	 0.453802478455139 
954	 0.441590414618857 
955	 0.445133351173518 
956	 0.449888292508288 
957	 0.445445363505617 
958	 0.439894691005872 
959	 0.449361897954841 
960	 0.445793781552212 
961	 0.448807037647302 
962	 0.457631847071903 
963	 0.457342052420068 
964	 0.450717224182357 
965	 0.455839641061579 
966	 0.465107559842121 
967	 0.461910766829971 
968	 0.464839797275167 
969	 0.463613008546318 
970	 0.46263439977925 
971	 0.47021554353256 
972	 0.468860718799623 
973	 0.468013978532577 
974	 0.468497979334869 
975	 0.466731136352758 
976	 0.464151673773047 
977	 0.469467348855597 
978	 0.473725787602486 
979	 0.46871641369195 
980	 0.471466962854651 
981	 0.473743822364411 
982	 0.475130023272164 
983	 0.476266694050014 
984	 0.474135529497841 
985	 0.477026906173349 
986	 0.480936058296338 
987	 0.482490153220569 
988	 0.48543690613593 
989	 0.483816566958614 
990	 0.480378126639925 
991	 0.47931214589544 
992	 0.483160600843388 
993	 0.48498215550467 
994	 0.487413243754908 
995	 0.489417959841959 
996	 0.485794072291864 
997	 0.483836409363818 
998	 0.483948670838778 
999	 0.485417097114507 
1000	 0.48706052697419 
1001	 0.502544386753846 
1002	 0.503373279039757 
1003	 0.506591899622228 
1004	 0.507479190030647 
1005	 0.510029638269031 
1006	 0.510391852080804 
1007	 0.506573224824733 
1008	 0.505820490323502 
1009	 0.505392253668397 
1010	 0.507983501836929 
1011	 0.510160489940108 
1012	 0.511138427901861 
1013	 0.511299484697201 
1014	 0.510786879250862 
1015	 0.511015425386388 
1016	 0.512852437804228 
1017	 0.513074976024316 
1018	 0.512787185801834 
1019	 0.513300776770106 
1020	 0.512987525402307 
1021	 0.513289647257338 
1022	 0.514888890827223 
1023	 0.516422666804593 
1024	 0.518123480286727 
1025	 0.51915546547835 
1026	 0.51962033031159 
1027	 0.521075173466937 
1028	 0.519824820293 
1029	 0.519166786347756 
1030	 0.518991133549281 
1031	 0.518576206739916 
1032	 0.518969757215977 
1033	 0.520120975075623 
1034	 0.51983705995084 
1035	 0.519477065779661 
1036	 0.519367043387528 
1037	 0.517775588004204 
1038	 0.518835845511987 
1039	 0.521435201479609 
1040	 0.522271240730114 
1041	 0.522944351527209 
1042	 0.522831684559965 
1043	 0.522005205897779 
1044	 0.521898777431252 
1045	 0.525172974709669 
1046	 0.528271126957618 
1047	 0.52846924480611 
1048	 0.529557345874883 
1049	 0.529928294220386 
1050	 0.528110132489453 
1051	 0.526813954430904 
1052	 0.525785501337057 
1053	 0.525207113149369 
1054	 0.524404218309042 
1055	 0.523439719087441 
1056	 0.523950046712374 
1057	 0.523297240419476 
1058	 0.520360247345533 
1059	 0.519371365439036 
1060	 0.520116921448751 
1061	 0.521727156892662 
1062	 0.525063987490899 
1063	 0.525476354762526 
1064	 0.525111380852833 
1065	 0.522512468523497 
1066	 0.521368024486848 
1067	 0.522789478883943 
1068	 0.523180773384483 
1069	 0.525008585468413 
1070	 0.528291320762827 
1071	 0.526021799309565 
1072	 0.526945454769422 
1073	 0.527364005498036 
1074	 0.524616369118523 
1075	 0.526447762826512 
1076	 0.526235834937442 
1077	 0.526677209156503 
1078	 0.528591480212629 
1079	 0.529561149254574 
1080	 0.528812974695016 
1081	 0.530854620059828 
1082	 0.530878573432108 
1083	 0.528847930805935 
1084	 0.527460815433322 
1085	 0.525367985932819 
1086	 0.525160936714563 
1087	 0.527067916492898 
1088	 0.529397775787496 
1089	 0.527574060732186 
1090	 0.524996937054141 
1091	 0.525458583401353 
1092	 0.524462303616754 
1093	 0.52360242623732 
1094	 0.52399407857498 
1095	 0.523121685731514 
1096	 0.519898661202212 
1097	 0.517326032229327 
1098	 0.518506583223271 
1099	 0.520349843181192 
1100	 0.521357469184863 
1101	 0.521722887690053 
1102	 0.518774515599509 
1103	 0.515905843340226 
1104	 0.518868575189175 
1105	 0.521238801433347 
1106	 0.524719482665249 
1107	 0.528219896346142 
1108	 0.525084135555979 
1109	 0.522804930254414 
1110	 0.51938538605034 
1111	 0.511849376589175 
1112	 0.506425321679083 
1113	 0.499864881204344 
1114	 0.494740117050182 
1115	 0.496300793612066 
1116	 0.499471533984248 
1117	 0.513309197560186 
1118	 0.510491783885609 
1119	 0.481294865674386 
1120	 0.472638981748078 
1121	 0.420840001979411 
1122	 0.361526211859991 
1123	 0.386421551307506 
1124	 0.393762422751075 
1125	 0.413785759479855 
1126	 0.463450522955857 
1127	 0.462357209780973 
1128	 0.374951369865083 
1129	 0.359607217012583 
1130	 0.3537290651753 
1131	 0.370819246980745 
1132	 0.384504721606455 
1133	 0.374579134354564 
1134	 0.378415932696698 
1135	 0.39082460485044 
1136	 0.414985758529761 
1137	 0.463196704470619 
1138	 0.477499278144157 
1139	 0.481949969165779 
1140	 0.490776351639184 
1141	 0.469344397928951 
1142	 0.458212670131646 
1143	 0.442590930270362 
1144	 0.439858195864797 
1145	 0.4443740921764 
1146	 0.446250234007054 
1147	 0.457777905300718 
1148	 0.471346196169366 
1149	 0.459343706949857 
1150	 0.445359371505011 
1151	 0.454558284053483 
1152	 0.446454450379181 
1153	 0.440886005755853 
1154	 0.442733588505237 
1155	 0.445030009674199 
1156	 0.442634948129546 
1157	 0.442691091916397 
1158	 0.454943702228185 
1159	 0.455640912783798 
1160	 0.45311366131764 
1161	 0.452331011831105 
1162	 0.446738925169731 
1163	 0.444413795353306 
1164	 0.443173672446912 
1165	 0.445819769360444 
1166	 0.445369983942992 
1167	 0.449463922926996 
1168	 0.454182191175737 
1169	 0.45438845983964 
1170	 0.456067377224072 
1171	 0.455045711440047 
1172	 0.452759087185424 
1173	 0.454814106812795 
1174	 0.45655606444897 
1175	 0.459333603556276 
1176	 0.461161734315767 
1177	 0.464334290335687 
1178	 0.463129029409066 
1179	 0.459214518225988 
1180	 0.456948089846896 
1181	 0.449625275687748 
1182	 0.448490670012851 
1183	 0.452581867835723 
1184	 0.454604060749653 
1185	 0.454878946900783 
1186	 0.459841388401824 
1187	 0.461616245323765 
1188	 0.45861540656571 
1189	 0.457402106773884 
1190	 0.455180603345811 
1191	 0.454273828058993 
1192	 0.454589118229941 
1193	 0.454682681362466 
1194	 0.457394063289826 
1195	 0.458228596442632 
1196	 0.456938859650435 
1197	 0.457262552654588 
1198	 0.459157269497469 
1199	 0.458775184707674 
1200	 0.456630304050962 
1201	 0.456193777168161 
1202	 0.455352079241571 
1203	 0.454656306735379 
1204	 0.457622021242119 
1205	 0.460557209085157 
1206	 0.461271946485017 
1207	 0.461547828279011 
1208	 0.46046123878083 
1209	 0.459141962060591 
1210	 0.459148157300146 
1211	 0.460914603816222 
1212	 0.461100842539267 
1213	 0.460398625879109 
1214	 0.461073574125715 
1215	 0.46238995516271 
1216	 0.462187925836067 
1217	 0.462135367221125 
1218	 0.4619991541342 
1219	 0.460582085887069 
1220	 0.45992244389687 
1221	 0.459699204314339 
1222	 0.459803730634854 
1223	 0.459776002791054 
1224	 0.460625832882009 
1225	 0.462993643267906 
1226	 0.465330934260179 
1227	 0.466560679997154 
1228	 0.467001744216709 
1229	 0.467555707454781 
1230	 0.466801750916049 
1231	 0.46734997366613 
1232	 0.468872432489212 
1233	 0.469462083207721 
1234	 0.469791372527162 
1235	 0.470686540640664 
1236	 0.471021615042059 
1237	 0.472321572809137 
1238	 0.475521660053153 
1239	 0.476748554654435 
1240	 0.477450131802178 
1241	 0.478026248650635 
1242	 0.477903728873989 
1243	 0.476691095710906 
1244	 0.476477136429451 
1245	 0.476391393954772 
1246	 0.475908040945531 
1247	 0.475694430198076 
1248	 0.475764828553235 
1249	 0.476277513667173 
1250	 0.476421403477302 
1251	 0.477047593714511 
1252	 0.476484495057257 
1253	 0.474032143827348 
1254	 0.474006721013828 
1255	 0.474904846967232 
1256	 0.475408372752332 
1257	 0.477615011285145 
1258	 0.478787794889781 
1259	 0.478579470542056 
1260	 0.478971813492378 
1261	 0.480267575736489 
1262	 0.480686524792207 
1263	 0.480626456526977 
1264	 0.480176848888033 
1265	 0.480042810900588 
1266	 0.479646802483628 
1267	 0.477505037893876 
1268	 0.474875855168171 
1269	 0.474822836642642 
1270	 0.475070129139206 
1271	 0.475866904314884 
1272	 0.480325197945157 
1273	 0.480769508901073 
1274	 0.47825885321954 
1275	 0.477719376890166 
1276	 0.476842536202745 
1277	 0.476723221027432 
1278	 0.477652485929292 
1279	 0.477998736269591 
1280	 0.477801741676464 
1281	 0.478329619738533 
1282	 0.480682709751269 
1283	 0.480818437965961 
1284	 0.480399699480303 
1285	 0.479192740308527 
1286	 0.475459280403004 
1287	 0.472813794451188 
1288	 0.473423372251193 
1289	 0.472412264587611 
1290	 0.471655955666801 
1291	 0.471632834435425 
1292	 0.471636914253139 
1293	 0.47115794110514 
1294	 0.471016612242776 
1295	 0.47241320951404 
1296	 0.47182576012506 
1297	 0.468864142413394 
1298	 0.467863520393047 
1299	 0.467130862515187 
1300	 0.466545226996372 
1301	 0.468454282439261 
1302	 0.467417461517536 
1303	 0.463597749275627 
1304	 0.461656097995386 
1305	 0.458967397965853 
1306	 0.456557952321582 
1307	 0.456744054562477 
1308	 0.454326797177967 
1309	 0.449817110471081 
1310	 0.445630260430967 
1311	 0.443711308293029 
1312	 0.443370466400773 
1313	 0.443103235574255 
1314	 0.44729177334679 
1315	 0.445481464377303 
1316	 0.440233886854556 
1317	 0.436311564348733 
1318	 0.42849329380029 
1319	 0.425124039113398 
1320	 0.423814271658777 
1321	 0.423605619298032 
1322	 0.428143800520863 
1323	 0.42873240405275 
1324	 0.429951813944322 
1325	 0.428366151919157 
1326	 0.421553541700679 
1327	 0.415589563695418 
1328	 0.404992146182972 
1329	 0.39820225729404 
1330	 0.393537572923096 
1331	 0.388382808832323 
1332	 0.385510212142433 
1333	 0.386850470371467 
1334	 0.39123431469771 
1335	 0.39002654412174 
1336	 0.389849953080683 
1337	 0.393509267213549 
1338	 0.390536962065253 
1339	 0.382029282957113 
1340	 0.373519729495804 
1341	 0.355483195060524 
1342	 0.349525635400362 
1343	 0.344299932477082 
1344	 0.347045269214525 
1345	 0.383844491891802 
1346	 0.397322450667864 
1347	 0.395227260262777 
1348	 0.408444030602356 
1349	 0.385849059062386 
1350	 0.40123130829152 
1351	 0.660007748698702 
1352	 0.972105822797659 
1353	 1.01530178840343 
1354	 1.00603157476233 
1355	-0.347141009961284 
1356	-0.613184502431186 
1357	-0.308788372042468 
1358	-0.252985052887117 
1359	 0.014111573674817 
1360	 4.25183618478921E-02 
1361	 0.355634005340479 
1362	 1.45367338865567 
1363	 4.98283745525798 
1364	 4.57540917263041 
1365	-0.319822942401877 
1366	-3.82084324166923 
1367	-1.78657137119134 
1368	-0.884700769643796 
1369	-0.78014228928067 
1370	-0.510849018188246 
1371	-0.429264052620882 
1372	-0.522207765254834 
1373	-0.462515471371883 
1374	 0.137323201050196 
1375	 0.752591414303795 
1376	 9.73716349379524 
1377	 2.7263596716713 
1378	-0.534728680288214 
1379	-0.696630067821554 
1380	-0.682992034456963 
1381	-0.727190196537462 
1382	-8.09225863343941 
1383	 4.09373191760815 
1384	-0.277220929766974 
1385	 0.430751504967513 
1386	 1.44934538595283 
1387	 1.00504415929331 
1388	 1.17378533711354 
1389	 0.493838358491323 
1390	 0.271071710567379 
1391	-0.1934668361736 
1392	-0.327342402924985 
1393	-0.38826869164396 
1394	-0.487117200190894 
1395	-0.428740298772367 
1396	-0.49728944407086 
1397	-0.560956957076234 
1398	-0.735795788040196 
1399	-1.20459588396187 
1400	-1.68523244908833 
1401	-3.15361033760463 
1402	-5.25465441892201 
1403	 6.68139804946332 
1404	 6.11013032967209 
1405	-0.253077263062387 
1406	 0.233504625072004 
1407	 0.346931644416603 
1408	 0.300187038574012 
1409	-0.402792478095312 
1410	-0.63091280193374 
1411	-0.517402041586472 
1412	-0.447371954281961 
1413	-0.209443823489056 
1414	 0.084688170335994 
1415	 0.33303311565743 
1416	 0.427510615084715 
1417	 0.684994837410034 
1418	 0.869228308589919 
1419	 0.952980491465238 
1420	 1.35083815998858 
1421	 1.27935582042129 
1422	 0.758403739810068 
1423	 0.59402423433379 
1424	 0.361145482432144 
1425	 0.284389865630205 
1426	 0.266706161560644 
1427	 0.295039346838317 
1428	 0.368793805787833 
1429	 0.43950499233419 
1430	 0.598870536326078 
1431	 0.61171302457214 
1432	 0.587847121387628 
1433	 0.517113844645642 
1434	 0.16678971940827 
1435	-0.024493858013487 
1436	-8.83714256961744E-02 
1437	-3.22460630267809E-02 
1438	 0.224499205198553 
1439	 0.302576570732779 
1440	 0.606900319136595 
1441	 0.663150806510425 
1442	 0.144525539345825 
1443	 9.82711115283688E-02 
1444	 0.262786113380106 
1445	 0.245808378377705 
1446	 0.386174836466128 
1447	 0.35401798099163 
1448	 0.112533955275128 
1449	 3.36012368634678E-02 
1450	-3.11354408165993E-03 
1451	-1.23692543469648E-02 
1452	 4.25464197410685E-02 
1453	 7.33876964682433E-02 
1454	 0.138782413962963 
1455	 0.112384550976316 
1456	 0.142457314245594 
1457	 0.18615572497948 
1458	 0.159760678212827 
1459	 0.108471772816925 
1460	 0.102372768149935 
1461	 6.07222192607721E-02 
1462	 6.73702417608211E-02 
1463	 0.143294224342163 
1464	 0.166789655121768 
1465	 0.156211568821869 
1466	 0.197644306480689 
1467	 0.276123230799461 
1468	 0.318823831765065 
1469	 0.400859038942216 
1470	 0.4057081644696 
1471	 0.337543562894148 
1472	 0.278047966153422 
1473	 0.196433613488846 
1474	 0.133255566082578 
1475	 5.63508073405106E-02 
1476	 3.79174111147639E-02 
1477	 4.72008315412128E-02 
1478	 4.41467640014766E-02 
1479	 5.30434049374567E-02 
1480	 7.73976242936291E-02 
1481	 9.94270273733702E-02 
1482	 0.123981288782966 
1483	 0.197278083735879 
1484	 0.204554960806675 
1485	 0.163540194583369 
1486	 0.155669601121537 
1487	 0.138892188672073 
1488	 0.136967763594915 
1489	 0.157059620486691 
1490	 0.158022249245953 
1491	 0.149117385243314 
1492	 0.148262051840069 
1493	 0.141776129642941 
1494	 0.142435515945271 
1495	 0.154385782737767 
1496	 0.157251677223808 
1497	 0.154440829361548 
1498	 0.157068009729315 
1499	 0.162033350507102 
1500	 0.160898058397583 
1501	 0.168361456047964 
1502	 0.175583341077745 
1503	 0.170319030889216 
1504	 0.168563926993017 
1505	 0.169153374204143 
1506	 0.167170583078769 
1507	 0.169471359211733 
1508	 0.17747301035589 
1509	 0.180316655439578 
1510	 0.181543002991327 
1511	 0.182919774844432 
1512	 0.184081379428343 
1513	 0.184345128549692 
1514	 0.184302827338059 
1515	 0.18324883942015 
1516	 0.179347413407988 
1517	 0.180931620468841 
1518	 0.184959052041165 
1519	 0.186452929244831 
1520	 0.190944308952808 
1521	 0.191979388014985 
1522	 0.188389841742009 
1523	 0.188649886980759 
1524	 0.189736360348237 
1525	 0.191395114953881 
1526	 0.194317578168163 
1527	 0.197067447018966 
1528	 0.201549207510956 
1529	 0.203397822115834 
1530	 0.203029450410184 
1531	 0.204801246609138 
1532	 0.206953570433118 
1533	 0.208058141987169 
1534	 0.211133914979971 
1535	 0.211645730155458 
1536	 0.207875285337193 
1537	 0.207436241614334 
1538	 0.20733616676199 
1539	 0.208693299774525 
1540	 0.212849260739661 
1541	 0.215725455457921 
1542	 0.219637251316781 
1543	 0.221443571647351 
1544	 0.220799619987104 
1545	 0.221908128383976 
1546	 0.223218365607913 
1547	 0.224283392728643 
1548	 0.226879771832247 
1549	 0.228065249068527 
1550	 0.226396487282991 
1551	 0.227268706850057 
1552	 0.22931585651716 
1553	 0.231301710856287 
1554	 0.236499161828099 
1555	 0.238532334327404 
1556	 0.237981317410387 
1557	 0.238018825684306 
1558	 0.234642643100495 
1559	 0.234821828869247 
1560	 0.238574165263034 
1561	 0.241108046322433 
1562	 0.245820941922609 
1563	 0.249005731734481 
1564	 0.249844849177374 
1565	 0.24793784301533 
1566	 0.246306158952995 
1567	 0.245714967994459 
1568	 0.245066775786837 
1569	 0.245078478600708 
1570	 0.247955780440002 
1571	 0.249718718024248 
1572	 0.251641551240175 
1573	 0.254039573320987 
1574	 0.254755581328245 
1575	 0.254438886689095 
1576	 0.251897200153706 
1577	 0.254872359003949 
1578	 0.259344194438115 
1579	 0.259861621805691 
1580	 0.263205615155596 
1581	 0.265560429465729 
1582	 0.264265890178716 
1583	 0.266663565685044 
1584	 0.270678606053945 
1585	 0.26949121875654 
1586	 0.267506370817509 
1587	 0.262731529339316 
1588	 0.261726443636152 
1589	 0.258993534367116 
1590	 0.26090658801981 
1591	 0.268295077587424 
1592	 0.270544927375383 
1593	 0.272809408870395 
1594	 0.27404261338119 
1595	 0.273122512747794 
1596	 0.273021921935234 
1597	 0.273099276682873 
1598	 0.271784490198134 
1599	 0.26857441687842 
1600	 0.267794425172358 
1601	 0.267632850381892 
1602	 0.26672972099297 
1603	 0.266286016262048 
1604	 0.267595386320793 
1605	 0.269362878365026 
1606	 0.271338577505355 
1607	 0.275942726979695 
1608	 0.276608076136232 
1609	 0.274334640626204 
1610	 0.273721323266955 
1611	 0.272124441100484 
1612	 0.273446764664508 
1613	 0.276656733869629 
1614	 0.277923851560067 
1615	 0.280054449111396 
1616	 0.281021702333872 
1617	 0.280606780902813 
1618	 0.280924491556515 
1619	 0.281537410108025 
1620	 0.282055023338154 
1621	 0.282572023357043 
1622	 0.282350065344397 
1623	 0.281327256743896 
1624	 0.281108770320925 
1625	 0.280162025615919 
1626	 0.280437264719398 
1627	 0.282636647392462 
1628	 0.283078655795582 
1629	 0.282479641253309 
1630	 0.284700331936596 
1631	 0.287867620586973 
1632	 0.290302076347764 
1633	 0.294750005116527 
1634	 0.296874472947443 
1635	 0.296823375874596 
1636	 0.297539340446774 
1637	 0.299316188544392 
1638	 0.297380238951392 
1639	 0.292661910221748 
1640	 0.290187081681719 
1641	 0.284578327924439 
1642	 0.28482976457085 
1643	 0.290157143548168 
1644	 0.292914416091783 
1645	 0.297028341663537 
1646	 0.300842606286876 
1647	 0.304797050444215 
1648	 0.305484847706027 
1649	 0.306565831959707 
1650	 0.306400917991057 
1651	 0.300742467701299 
1652	 0.300060218838317 
1653	 0.302706512035978 
1654	 0.301097726479776 
1655	 0.298145951691524 
1656	 0.298015021991852 
1657	 0.297663454296545 
1658	 0.296788053497723 
1659	 0.298216464544939 
1660	 0.298194251097304 
1661	 0.294888158424584 
1662	 0.296533596491494 
1663	 0.299113868419355 
1664	 0.297253259588158 
1665	 0.29508465184006 
1666	 0.295199657252039 
1667	 0.295254613957132 
1668	 0.296770357355647 
1669	 0.298982184270892 
1670	 0.299749707121635 
1671	 0.302778523344491 
1672	 0.305920179013751 
1673	 0.306105268071149 
1674	 0.304811075213271 
1675	 0.298425745014885 
1676	 0.293235408672015 
1677	 0.294943115463664 
1678	 0.294426019585132 
1679	 0.294027339993575 
1680	 0.297241520233296 
1681	 0.296791327340654 
1682	 0.297814328839087 
1683	 0.30112883496057 
1684	 0.299372124688228 
1685	 0.297913282788672 
1686	 0.299974452102647 
1687	 0.298105872604215 
1688	 0.295161727986741 
1689	 0.294597549318942 
1690	 0.286200204529152 
1691	 0.281835539597931 
1692	 0.284827634247369 
1693	 0.280689615345574 
1694	 0.282506986432136 
1695	 0.287028160787569 
1696	 0.286854033053713 
1697	 0.291938009920996 
1698	 0.291891553799364 
1699	 0.28815542426755 
1700	 0.287742136646358 
1701	 0.285331205972922 
1702	 0.286321858261163 
1703	 0.289124069815913 
1704	 0.286244946912852 
1705	 0.28293258934674 
1706	 0.279472539788035 
1707	 0.274772964873248 
1708	 0.275590578981599 
1709	 0.277221977948943 
1710	 0.278933197812649 
1711	 0.283372350440275 
1712	 0.282069637841646 
1713	 0.278377620174373 
1714	 0.276584108827751 
1715	 0.272402052841224 
1716	 0.272210325265023 
1717	 0.277303381627788 
1718	 0.278202609529581 
1719	 0.278142240964594 
1720	 0.269464605273539 
1721	 0.264982915911917 
1722	 0.262824710973857 
1723	 0.261505114468634 
1724	 0.264095197526409 
1725	 0.264198699604584 
1726	 0.262588873628478 
1727	 0.260390262863859 
1728	 0.256245412130628 
1729	 0.254383636715018 
1730	 0.252223217441393 
1731	 0.253352872134068 
1732	 0.257949966823173 
1733	 0.263756027205351 
1734	 0.275834814861478 
1735	 0.276787477754987 
1736	 0.269994643276533 
1737	 0.266461932406859 
1738	 0.257866395969099 
1739	 0.258396128064493 
1740	 0.264650513978964 
1741	 0.2635114506203 
1742	 0.265765837978012 
1743	 0.266123559310595 
1744	 0.260069285820256 
1745	 0.265487704442736 
1746	 0.259632692944243 
1747	 0.263299776633167 
1748	 0.268607530038685 
1749	 0.254625439193056 
1750	 0.25402135046202 
1751	 0.248430630585291 
1752	 0.243233962050939 
1753	 0.257826818893091 
1754	 0.269498276349757 
1755	 0.271818195855542 
1756	 0.268733948182688 
1757	 0.262233473827514 
1758	 0.256378209284518 
1759	 0.255963510524061 
1760	 0.264272949110303 
1761	 0.270583483780841 
1762	 0.269655224691575 
1763	 0.267683847264806 
1764	 0.25650155658635 
1765	 0.244914326173943 
1766	 0.24340190282742 
1767	 0.23190389189782 
1768	 0.229754782233231 
1769	 0.254267846014514 
1770	 0.261887409002595 
1771	 0.282845900185108 
1772	 0.311766320340187 
1773	 0.296961438722349 
1774	 0.288400928936064 
1775	 0.284220808786777 
1776	 0.270448530894087 
1777	 0.273967445662532 
1778	 0.268326851647609 
1779	 0.25041144798754 
1780	 0.239952648701198 
1781	 0.252228719872649 
1782	 0.298442519518398 
1783	 0.335778493359401 
1784	 0.345381855256184 
1785	 0.332891867287886 
1786	 0.295026958983229 
1787	 0.251900859924376 
1788	 0.247474558272678 
1789	 0.293925512304067 
1790	 0.365085477119943 
1791	 0.402031709020497 
1792	 0.437007268982145 
1793	 0.410429030528396 
1794	 0.334269721379545 
1795	 0.435096492354555 
1796	 0.471312710582831 
1797	 0.414354613815594 
1798	 0.536340116894967 
1799	 0.497481109280631 
1800	 0.6524000262701 
1801	 0.398404613153098 
1802	 0.23134247874845 
1803	 0.1121873961255 
1804	 6.46396587530486E-02 
1805	 4.24734480966257E-02 
1806	-9.75615318020415E-02 
1807	-8.50788208879373E-02 
1808	 0.012101333187324 
1809	 8.74412503065211E-02 
1810	 0.186202946715595 
1811	 0.268356591260824 
1812	 0.469861097870181 
1813	 0.561292339104068 
1814	 0.550292781281982 
1815	 0.551946531587587 
1816	 0.427085973209037 
1817	 0.443826527849691 
1818	 0.410548929327067 
1819	 0.28208884935806 
1820	 0.325047601360234 
1821	 0.576087836114611 
1822	 0.633925011123037 
1823	 0.718888525435025 
1824	 0.754632297336147 
1825	 0.851846734004396 
1826	 0.591518411481389 
1827	 0.516614464866236 
1828	 0.422139674960857 
1829	 0.387295666206123 
1830	 0.351762803420062 
1831	 0.33436253988691 
1832	 0.418727126189094 
1833	 0.407581312249875 
1834	 0.232749616583075 
1835	 0.205349321112648 
1836	 0.230795541863967 
1837	 0.273829635606266 
1838	 0.418960345833843 
1839	 1.04563530730101 
1840	 1.27965228874768 
1841	 1.36972949223821 
1842	 1.32802827137767 
1843	 0.909179370968717 
1844	 0.74629954394142 
1845	 0.54463833366493 
1846	 0.489921649107099 
1847	 0.574668906653116 
1848	 0.887953942462608 
1849	 1.22021252848381 
1850	 16.4552420948488 
1851	-6.91369878547832 
1852	-7.22859950251438 
1853	-165.040692985239 
1854	 1.33068550772084 
1855	 0.779512363596082 
1856	 0.553991133321068 
1857	 0.448448573335274 
1858	 0.416873243014474 
1859	 0.500133555519242 
1860	 0.434175086674444 
1861	 0.314496362055243 
1862	 0.28617702599734 
1863	 0.226823288310746 
1864	 0.197165290053295 
1865	 0.224627608115455 
1866	 0.285145867266216 
1867	 0.366616443268132 
1868	 0.433514529366775 
1869	 0.517336281804898 
1870	 0.638609382200239 
1871	 0.722836887987813 
1872	 0.782235701949352 
1873	 0.77114563679033 
1874	 0.78230475169227 
1875	 0.731992445923689 
1876	 0.465417647393944 
1877	 0.373797354890231 
1878	 0.357725205515583 
1879	 0.46208125118044 
1880	 0.40825478654559 
1881	 0.400171211286256 
1882	 0.403219150450404 
1883	 0.267036920732655 
1884	 0.234806500175311 
1885	 0.359972355405884 
1886	 0.431753320655126 
1887	 0.448199042499656 
1888	 0.505281983953457 
1889	 0.553984485584933 
1890	 0.72968678850593 
1891	 0.675247042611439 
1892	 0.332446387860818 
1893	 0.194645738711527 
1894	 6.42820729148598E-02 
1895	-1.67223297862722E-02 
1896	 1.13893585739765E-02 
1897	 0.119996321562324 
1898	 0.380938083986562 
1899	 0.402632590097809 
1900	 0.481553085615743 
1901	 0.621940653002983 
1902	 0.816977435437538 
1903	 1.09921071338017 
1904	 1.25157101956001 
1905	 2.43316149336379 
1906	 2.4744910546372 
1907	 1.2464481446031 
1908	 0.675474010492827 
1909	 0.552267449660866 
1910	 0.411358090304531 
1911	 0.343910425993208 
1912	 0.321726154005739 
1913	 0.390189729844324 
1914	 0.570312514934426 
1915	 0.655021887886444 
1916	 0.98738176968541 
1917	 1.08081650326595 
1918	 0.89671744913773 
1919	 0.666567693699506 
1920	 0.617958924184514 
1921	 0.522759656175593 
1922	 0.421517841407394 
1923	 0.346580842695453 
1924	 0.257902578028879 
1925	 6.77518794665322E-02 
1926	 0.081669958732234 
1927	 0.301579369807222 
1928	 0.418883993421966 
1929	 0.762142975454096 
1930	 1.11663507834219 
1931	 0.695422136791122 
1932	 0.41938376098292 
1933	 0.278485759072318 
1934	 0.310546062709276 
1935	 0.39589021049494 
1936	 0.680180622605734 
1937	 0.902807876787281 
1938	 1.30559876241898 
1939	 1.30941697726039 
1940	 1.15995632493796 
1941	 0.990840637249653 
1942	 0.744576352653717 
1943	 0.68425633772002 
1944	 0.610111069595547 
1945	 0.497947633871509 
1946	 0.421690286484211 
1947	 0.202505312639174 
1948	 0.142476763886476 
1949	 0.313053405022375 
1950	 0.474002396776659 
1951	 0.690606123930107 
1952	 0.768790048577434 
1953	 0.865341852012066 
1954	 0.754610063786333 
1955	 0.649498623788618 
1956	 0.818263877736872 
1957	 0.99263914115959 
1958	 1.01936124684079 
1959	 1.15232309842972 
1960	 1.43324717450404 
1961	 1.39334087521931 
1962	 1.33524833112765 
1963	 1.11519776589299 
1964	 0.799978544447195 
1965	 0.563104849317262 
1966	 0.457308789320882 
1967	 0.427532362152167 
1968	 0.31344266230795 
1969	 0.236694214516459 
1970	 0.211028065254332 
1971	 0.155174777209644 
1972	 0.159700937939376 
1973	 0.233630712896591 
1974	 0.285645936339675 
1975	 0.387521559397149 
1976	 0.414133718563668 
1977	 0.412324541306112 
1978	 0.423800420967744 
1979	 0.375175019036314 
1980	 0.259963380472246 
1981	 0.173496242607607 
1982	 0.158601048639576 
1983	 0.157701637348906 
1984	 0.189693000486451 
1985	 0.210329467497886 
1986	 0.269788870688118 
1987	 0.274875815109477 
1988	 0.242363926317812 
1989	 0.252619089990378 
1990	 0.211612048035399 
1991	 0.208770442749252 
1992	 0.265997952938508 
1993	 0.273407197424566 
1994	 0.354443057880485 
1995	 0.489322414279425 
1996	 0.532892888325445 
1997	 0.521869762537004 
1998	 0.553615583505263 
1999	 0.504657319279311 
2000	 0.456435005027253 
2001	 0.41833496723173 
2002	 0.377158848992859 
2003	 0.310011388226078 
2004	 0.346319577557704 
2005	 0.437008409244482 
2006	 0.424209735268112 
2007	 0.343793197423812 
2008	 0.179287288461398 
2009	 0.139955801672493 
2010	 0.192615321509419 
2011	 0.183367482673018 
2012	 0.216817141818483 
2013	 0.231318677082664 
2014	 0.201973800689387 
2015	 0.163619468016351 
2016	 0.183750497316513 
2017	 0.169384241099439 
2018	 0.152437485285588 
2019	 0.213003719864151 
2020	 0.267774968462873 
2021	 0.26497556896252 
2022	 0.255496158301511 
2023	 0.208755942167213 
2024	 0.199934191337847 
2025	 0.221179008974721 
2026	 0.215878234754948 
2027	 0.207565851437866 
2028	 0.212920215953704 
2029	 0.206315214386112 
2030	 0.16655710180708 
2031	 0.166486502993409 
2032	 0.161938612424086 
2033	 0.133244917265142 
2034	 0.154648134329441 
2035	 0.173037757049029 
2036	 0.178059454085111 
2037	 0.192453105776035 
2038	 0.199618916744566 
2039	 0.208347497278272 
2040	 0.251910437074334 
2041	 0.242648250500959 
2042	 0.189172918969091 
2043	 0.189410746189223 
2044	 0.140746348235141 
2045	 0.1345099641395 
2046	 0.181201753147013 
2047	 0.205036003331377 
2048	 0.245758494862388 
2049	 0.23817777514332 
2050	 0.236751108322356 
2051	 0.267454045647825 
2052	 0.268194861890895 
2053	 0.268025852615191 
2054	 0.286980056420738 
2055	 0.319115029987463 
2056	 0.246718658368182 
2057	 0.238231692613809 
2058	 0.22421520540968 
2059	 0.165678928166103 
2060	 0.155932082823574 
2061	 0.126152176477254 
2062	 0.11003939822916 
2063	 0.11867661829515 
2064	 0.116511983664592 
2065	 0.125908008166817 
2066	 0.134408792380355 
2067	 0.137197242493987 
2068	 0.102709406042824 
2069	 0.108476002400851 
2070	 0.146566151379297 
2071	 0.157966306061985 
2072	 0.148477939727321 
2073	 0.194881836617711 
2074	 0.195606806214482 
2075	 0.186286726403259 
2076	 0.21020887383872 
2077	 0.214194627424999 
2078	 0.247409997392975 
2079	 0.287225642511031 
2080	 0.273724674704994 
2081	 0.262889032312504 
2082	 0.247600794784972 
2083	 0.187633051345432 
2084	 0.166095899279034 
2085	 0.16948793126893 
2086	 0.168045042996882 
2087	 0.147742090736993 
2088	 0.156572956616945 
2089	 0.165440221310529 
2090	 0.162978210200696 
2091	 0.178980927624915 
2092	 0.180267624656333 
2093	 0.160450992913364 
2094	 0.162663959351692 
2095	 0.175002489983046 
2096	 0.188943219501027 
2097	 0.240542132450717 
2098	 0.272676406315871 
2099	 0.281833697936244 
2100	 0.270765592171493 
2101	 0.25947496319258 
2102	 0.220215812004715 
2103	 0.206756650387902 
2104	 0.198888057923567 
2105	 0.197507585852938 
2106	 0.218138344829695 
2107	 0.223820527075097 
2108	 0.238318722391489 
2109	 0.2502732250352 
2110	 0.247150575630326 
2111	 0.250433290669848 
2112	 0.223040061874257 
2113	 0.183897989325914 
2114	 0.171123890015605 
2115	 0.157811456204912 
2116	 0.14802982923676 
2117	 0.165251787183824 
2118	 0.176475738034669 
2119	 0.175375197482353 
2120	 0.2031114699341 
2121	 0.229793786961124 
2122	 0.235803304932282 
2123	 0.240886293760543 
2124	 0.228327866699608 
2125	 0.219063778246018 
2126	 0.227426319266159 
2127	 0.222910057388848 
2128	 0.202629605900315 
2129	 0.20350070817587 
2130	 0.205745173565715 
2131	 0.179732070702 
2132	 0.168575184413221 
2133	 0.165650449945532 
2134	 0.152370931336231 
2135	 0.145244061202604 
2136	 0.149893479479299 
2137	 0.170649887091308 
2138	 0.174706605218318 
2139	 0.18174964944698 
2140	 0.216113509739115 
2141	 0.228831241617058 
2142	 0.22906030140657 
2143	 0.219090227374226 
2144	 0.190485324152748 
2145	 0.174515951197121 
2146	 0.168665762139032 
2147	 0.179901732657228 
2148	 0.198242311691412 
2149	 0.199607130597651 
2150	 0.195629943006096 
2151	 0.166570046659974 
2152	 0.164621033962568 
2153	 0.186191738609955 
2154	 0.186468551793846 
2155	 0.189151846390755 
2156	 0.178364286453348 
2157	 0.168500980505768 
2158	 0.153690833788999 
2159	 0.156076122915361 
2160	 0.178302116534334 
2161	 0.19371782437637 
2162	 0.180587605768736 
2163	 0.169307113991005 
2164	 0.171600708625542 
2165	 0.170022970626371 
2166	 0.187508362688629 
2167	 0.234525437050643 
2168	 0.282645414000147 
2169	 0.309114166088624 
2170	 0.304122112840034 
2171	 0.299265023101525 
2172	 0.26006070543422 
2173	 0.239556337682653 
2174	 0.231819032905171 
2175	 0.224966640151002 
2176	 0.220049427870929 
2177	 0.213445726396703 
2178	 0.192787043937881 
2179	 0.178545220423082 
2180	 0.186801466600843 
2181	 0.208032213178813 
2182	 0.230993315318374 
2183	 0.262017503820579 
2184	 0.293245737959514 
2185	 0.258649883859113 
2186	 0.258752838270193 
2187	 0.292257300170051 
2188	 0.269409560604205 
2189	 0.264045909313166 
2190	 0.260701205519126 
2191	 0.229765274329371 
2192	 0.232979308971299 
2193	 0.286835001532385 
2194	 0.31027441840195 
2195	 0.333537827471584 
2196	 0.340153420186995 
2197	 0.34031031313846 
2198	 0.290083298430056 
2199	 0.257178256934624 
2200	 0.263874916951775 
2201	 0.287141749210582 
2202	 0.311546963538928 
2203	 0.323903470847328 
2204	 0.363504621772575 
2205	 0.350885673763276 
2206	 0.310050154792618 
2207	 0.294448301480537 
2208	 0.249796486388436 
2209	 0.22704703651889 
2210	 0.23381728270693 
2211	 0.250436957339549 
2212	 0.269160439196476 
2213	 0.272614313711971 
2214	 0.265512234583677 
2215	 0.256700171559028 
2216	 0.217403673076618 
2217	 0.220542857285117 
2218	 0.265612369465239 
2219	 0.26275795572572 
2220	 0.250807494249997 
2221	 0.232417776268198 
2222	 0.170843876412776 
2223	 0.148051521745149 
2224	 0.164837423054517 
2225	 0.228735116869112 
2226	 0.275300376367494 
2227	 0.295905222109992 
2228	 0.280072996870191 
2229	 0.258951964396155 
2230	 0.242511118434939 
2231	 0.206998523062521 
2232	 0.214965522787901 
2233	 0.242050412421362 
2234	 0.296440595319857 
2235	 0.32452282116219 
2236	 0.306976626719548 
2237	 0.291763255459581 
2238	 0.239631051256538 
2239	 0.234242945019359 
2240	 0.27847040913452 
2241	 0.305870160505234 
2242	 0.314212606388081 
2243	 0.320303736380368 
2244	 0.297743808905175 
2245	 0.207355928463625 
2246	 0.169622052148048 
2247	 0.146630732225848 
2248	 0.142287906214673 
2249	 0.19315563490026 
2250	 0.234541835670263 
2251	 0.292470574921335 
2252	 0.305311056645087 
2253	 0.364018083751753 
2254	 0.345920556427703 
2255	 0.302413615707942 
2256	 0.30892944912263 
2257	 0.250417364875771 
2258	 0.191978766846484 
2259	 0.222675538248282 
2260	 0.227957971584116 
2261	 0.210032883161422 
2262	 0.248176531683425 
2263	 0.222764613170844 
2264	 0.137854562022369 
2265	 0.126576766238628 
2266	 0.132582811920549 
2267	 0.103349982798207 
2268	 0.141131499567361 
2269	 0.197446352410854 
2270	 0.197686244467763 
2271	 0.217855058876017 
2272	 0.250631605932139 
2273	 0.262406897254664 
2274	 0.285243181695019 
2275	 0.281101300614665 
2276	 0.2575207581551 
2277	 0.255512416499205 
2278	 0.234401095962691 
2279	 0.224718651959119 
2280	 0.205544810939561 
2281	 0.218433432607193 
2282	 0.268602142577764 
2283	 0.274761467876983 
2284	 0.301064764067517 
2285	 0.302020917140949 
2286	 0.20344047901929 
2287	 0.127894182723536 
2288	 9.26215013306748E-02 
2289	 6.97139900773511E-02 
2290	 9.03347733050512E-02 
2291	 0.147428458727249 
2292	 0.19733631016206 
2293	 0.268746008791604 
2294	 0.348129953978335 
2295	 0.396779383019609 
2296	 0.391556269512961 
2297	 0.367017540438416 
2298	 0.345122260396696 
2299	 0.292201142262479 
2300	 0.299431189612146 
2301	 0.365986637994441 
2302	 0.37687074806629 
2303	 0.352488950028799 
2304	 0.289417027088178 
2305	 0.217387205576753 
2306	 0.194653849105176 
2307	 0.213187119957799 
2308	 0.214879938970905 
2309	 0.282279440771768 
2310	 0.270962512848375 
2311	 0.185513582834044 
2312	 0.168224642853971 
2313	 0.136727214888084 
2314	 0.163674169154588 
2315	 0.260381525909599 
2316	 0.31246948068487 
2317	 0.437631676593971 
2318	 0.469103768205962 
2319	 0.375426678018114 
2320	 0.356747158574721 
2321	 0.317066647642467 
2322	 0.294707273872049 
2323	 0.338918301507875 
2324	 0.354085455454578 
2325	 0.354990584549082 
2326	 0.326358569762988 
2327	 0.291789333771285 
2328	 0.237393736340718 
2329	 0.123279307805067 
2330	 7.08987687707948E-02 
2331	 2.211188667725E-04 
2332	 3.67871110028395E-03 
2333	 0.122021333323304 
2334	 0.180034748362972 
2335	 0.241638984578526 
2336	 0.358837495687305 
2337	 0.416797755861679 
2338	 0.386121500758761 
2339	 0.398064549175288 
2340	 0.419240289706258 
2341	 0.316969596046667 
2342	 0.227342387294554 
2343	 0.177879056251553 
2344	 3.28266752291126E-02 
2345	 3.33911881215756E-02 
2346	 0.130147553765404 
2347	 0.19826444110619 
2348	 0.353010715131157 
2349	 0.553466490495123 
2350	 0.72274291517724 
2351	 1.03764893701346 
2352	 1.30052791115367 
2353	 1.24386614012888 
2354	 0.880934596347848 
2355	 0.538202668716 
2356	 0.342225337082979 
2357	 0.185784007630274 
2358	 0.129358126277674 
2359	 0.124005472600558 
2360	 0.17293541411962 
2361	 0.234833438242666 
2362	 0.325897255628788 
2363	 0.334640399344102 
2364	 0.272435552932691 
2365	 0.24198408653897 
2366	 0.204033008987947 
2367	 0.164154001739943 
2368	 0.170042134368127 
2369	 0.225099380155835 
2370	 0.250404104340677 
2371	 0.252624532610529 
2372	 0.250363259034593 
2373	 0.317290130740806 
2374	 0.364133054725534 
2375	 0.479398779924411 
2376	 0.776322210911067 
2377	 0.81238322664524 
2378	 0.713703635951648 
2379	 0.660380983700585 
2380	 0.499631008611682 
2381	 0.460770977914384 
2382	 0.439547266111869 
2383	 0.511948348657751 
2384	 0.763295293389228 
2385	 0.776173788488278 
2386	 0.681784180865331 
2387	 0.60140338751005 
2388	 0.430745827778821 
2389	 0.35822661575001 
2390	 0.31273485050787 
2391	 0.309553392400513 
2392	 0.301068396441777 
2393	 0.3947397656249 
2394	 0.70438586856692 
2395	 0.765227893347432 
2396	 0.806495619706859 
2397	 0.685330321010614 
2398	 0.283618897790921 
2399	 0.103194715729088 
2400	-0.134694429593909 
2401	-9.43105571766229E-02 
2402	 0.126060839955705 
2403	 0.277269010538039 
2404	 0.86720303673256 
2405	 1.04825170491033 
2406	 1.02859254663919 
2407	 0.895559842209138 
2408	 0.312860969042435 
2409	 0.143575634573784 
2410	 2.36326062721399E-02 
2411	 2.28914849194966E-02 
2412	 0.207737511805235 
2413	 0.196035561180679 
2414	 0.179026872704789 
2415	 0.179706147515845 
2416	 8.14725686245655E-02 
2417	 0.138587848171386 
2418	 0.407152263977127 
2419	 0.505795987899941 
2420	 0.821158215516793 
2421	 0.698646416320723 
2422	 0.240131983236069 
2423	 9.66983920585954E-02 
2424	-7.92801095104531E-02 
2425	-3.87643903607331E-02 
2426	 0.183373679221531 
2427	 0.197641600955945 
2428	 0.286862936640073 
2429	 0.25812564404791 
2430	 2.21503939407447E-02 
2431	 3.73288178558701E-02 
2432	 0.158741421379205 
2433	 0.239201633313902 
2434	 0.402608613105642 
2435	 0.523084477981288 
2436	 0.752353283359296 
2437	 0.699272302335999 
2438	 0.450036721282357 
2439	 0.309737988024764 
2440	 1.15409755303642E-02 
2441	-0.118762983382491 
2442	-0.202604591841744 
2443	-0.241383598975551 
2444	-0.244478296982032 
2445	-7.55156158490844E-02 
2446	 0.215082368134034 
2447	 0.32840573237772 
2448	 0.398168153797591 
2449	 0.367079595660931 
2450	 0.337726229535636 
2451	 0.628444759859683 
2452	 0.497095855704187 
2453	 0.693453674386298 
2454	 0.855883321701627 
2455	 0.671545702116672 
2456	 0.612831748470386 
2457	 0.409450935630372 
2458	 0.278967761995097 
2459	 0.261401113646557 
2460	 0.20016143770036 
2461	 8.04231214473955E-02 
2462	 1.71023114867699E-03 
2463	-4.27472410559836E-02 
2464	-6.12440666773961E-02 
2465	 2.72653144616399E-02 
2466	 9.29368798630679E-02 
2467	 0.330216104655155 
2468	 0.376734905151589 
2469	 0.360498473776055 
2470	 0.142932963039754 
2471	-0.40972054506735 
2472	-0.379316054906851 
2473	-0.119450984205163 
2474	-4.70059842309662E-02 
2475	 0.194916851815489 
2476	 0.400823019536488 
2477	 0.779926111664466 
2478	 1.04207351952793 
2479	 0.827561236381655 
2480	 0.588491646545149 
2481	 0.139814087218243 
2482	 2.81980080283299E-02 
2483	-6.87187194107137E-02 
2484	-9.20851490114895E-02 
2485	 6.69030094551578E-02 
2486	 9.29674124235503E-02 
2487	 4.35113963119502E-02 
2488	 3.19539655284444E-02 
2489	-7.71664205318138E-02 
2490	-4.66131236609076E-02 
2491	 0.172540981659459 
2492	 0.449252096145656 
2493	 2.12511065195605 
2494	 2.75361567690949 
2495	 1.87133044138422 
2496	 1.07097290159053 
2497	 0.352710700723985 
2498	 0.186601261482437 
2499	-4.74727058338338E-02 
2500	-8.54413228861803E-03 
