Wavelength	000005.asd
350	 5.91593041006854E-02 
351	 5.96491540890217E-02 
352	 0.059115787343462 
353	 5.76690755661883E-02 
354	 5.73315628336414E-02 
355	 0.057606293073115 
356	 5.76496481192591E-02 
357	 5.67272353996196E-02 
358	 5.65018570572546E-02 
359	 5.64889065408036E-02 
360	 0.056547446672613 
361	 5.75712230150427E-02 
362	 5.71834400974768E-02 
363	 5.64549802370916E-02 
364	 5.64592554337229E-02 
365	 5.61669624710443E-02 
366	 5.59945994865223E-02 
367	 5.62225705915773E-02 
368	 5.68619092514138E-02 
369	 5.70555196827633E-02 
370	 5.66816260318092E-02 
371	 5.61708908347466E-02 
372	 5.62271931549289E-02 
373	 5.66033773713787E-02 
374	 5.67101778545061E-02 
375	 5.64191902964931E-02 
376	 0.056214346823872 
377	 5.57697082119207E-02 
378	 5.56521054002698E-02 
379	 5.61584248961635E-02 
380	 5.64874883904389E-02 
381	 5.70701105815226E-02 
382	 5.70165784887081E-02 
383	 0.055816831673361 
384	 5.66415058315435E-02 
385	 5.70704374814601E-02 
386	 5.67774000186177E-02 
387	 0.056944023798396 
388	 5.76588839670382E-02 
389	 5.85036573656457E-02 
390	 5.88345262229472E-02 
391	 5.79271473984901E-02 
392	 0.05758067559848 
393	 5.79950264459116E-02 
394	 5.89777384052701E-02 
395	 0.06059438707285 
396	 6.01548214748795E-02 
397	 0.059330595226945 
398	 6.01971037469464E-02 
399	 6.08462030860002E-02 
400	 6.11411128781162E-02 
401	 6.14762366447028E-02 
402	 6.23750548062741E-02 
403	 0.062917965882117 
404	 6.30506661519709E-02 
405	 6.30163043489188E-02 
406	 6.32857427869317E-02 
407	 6.38150903993682E-02 
408	 6.45734491517264E-02 
409	 6.53425104180093E-02 
410	 6.54223559196279E-02 
411	 6.56090435965346E-02 
412	 6.58174383004695E-02 
413	 6.57864548318704E-02 
414	 6.64076593811148E-02 
415	 6.72655711731639E-02 
416	 6.78390628156213E-02 
417	 6.76892986226628E-02 
418	 6.77733935152992E-02 
419	 0.068238952470241 
420	 6.87709800382111E-02 
421	 6.84322755763114E-02 
422	 6.88018752999475E-02 
423	 6.93661730458858E-02 
424	 6.92924072008213E-02 
425	 6.91511042162555E-02 
426	 6.91910154520502E-02 
427	 6.94255885402762E-02 
428	 6.96736806724799E-02 
429	 6.95957562514933E-02 
430	 6.97260955288278E-02 
431	 7.01325394325461E-02 
432	 7.01418996932092E-02 
433	 6.99600449900277E-02 
434	 6.96745578688575E-02 
435	 6.94511450526174E-02 
436	 0.069757871499141 
437	 7.00086568301353E-02 
438	 7.00639765885177E-02 
439	 0.07006412826534 
440	 0.070422866472246 
441	 7.05785709192981E-02 
442	 7.05725682186272E-02 
443	 7.11519139033857E-02 
444	 7.14145602699566E-02 
445	 7.16141800850063E-02 
446	 7.19803369664159E-02 
447	 0.072024931828166 
448	 7.24412188170167E-02 
449	 7.29841886185265E-02 
450	 7.31576058428046E-02 
451	 7.35443773164647E-02 
452	 7.40279556984187E-02 
453	 0.074445896173076 
454	 7.46537505892373E-02 
455	 7.49301535600242E-02 
456	 0.075134084561942 
457	 7.51726681048794E-02 
458	 7.52959982229946E-02 
459	 7.52761717982467E-02 
460	 7.52340919890724E-02 
461	 7.53804807642352E-02 
462	 7.55700790616194E-02 
463	 7.56018545770187E-02 
464	 7.54658270425841E-02 
465	 7.53474605978333E-02 
466	 7.50243527108331E-02 
467	 7.49286821191948E-02 
468	 7.52433672964375E-02 
469	 7.52075544257664E-02 
470	 7.51868926139265E-02 
471	 7.51944382760469E-02 
472	 0.075135461739226 
473	 7.50969069578452E-02 
474	 7.52198179501173E-02 
475	 7.54972653200344E-02 
476	 7.57695584985117E-02 
477	 0.07616528395215 
478	 7.63485659369536E-02 
479	 7.61879154562411E-02 
480	 7.62963328451111E-02 
481	 7.63698735901824E-02 
482	 7.64543734854809E-02 
483	 7.67097096556471E-02 
484	 7.70228595969699E-02 
485	 7.71850332936298E-02 
486	 7.72332383869258E-02 
487	 7.75092372657576E-02 
488	 7.77732007751682E-02 
489	 7.80950954480442E-02 
490	 7.85390292815681E-02 
491	 7.89862310570318E-02 
492	 7.93730971344771E-02 
493	 7.97449769316563E-02 
494	 8.01965421951675E-02 
495	 8.07009587906862E-02 
496	 8.12904197357861E-02 
497	 8.19987412508894E-02 
498	 8.28529110822305E-02 
499	 8.40021883624447E-02 
500	 8.51852931724676E-02 
501	 8.61398885321408E-02 
502	 8.69630877506817E-02 
503	 8.78801741998869E-02 
504	 8.91761124425551E-02 
505	 9.10145438066305E-02 
506	 9.23114666590917E-02 
507	 9.37798764750806E-02 
508	 9.56923762602316E-02 
509	 0.097311861258302 
510	 9.91641845511489E-02 
511	 0.101185259240838 
512	 0.103246131681547 
513	 0.105629258174037 
514	 0.108001639530523 
515	 0.110270874533565 
516	 0.112556536170979 
517	 0.115266829427847 
518	 0.118268222021131 
519	 0.121258020381126 
520	 0.123893078659034 
521	 0.126612582088989 
522	 0.129289048108304 
523	 0.131694351616116 
524	 0.134110460581239 
525	 0.136723665746822 
526	 0.139407959460275 
527	 0.141736404110383 
528	 0.143958204797663 
529	 0.145861693975927 
530	 0.147392654351429 
531	 0.148996096050858 
532	 0.150607030204748 
533	 0.152074601749932 
534	 0.153245705795837 
535	 0.15438560840398 
536	 0.155431870099412 
537	 0.156325467083117 
538	 0.157028991966669 
539	 0.157648254764546 
540	 0.158200114442637 
541	 0.158715332963567 
542	 0.159384658518947 
543	 0.159849196229939 
544	 0.160256521678408 
545	 0.161016671683327 
546	 0.16148534330568 
547	 0.161768422503945 
548	 0.162067310431973 
549	 0.162565829648427 
550	 0.163169627268193 
551	 0.1635764366944 
552	 0.163533078653453 
553	 0.163361868256954 
554	 0.163328473206167 
555	 0.163384217193123 
556	 0.163192351186101 
557	 0.162870586259313 
558	 0.162218093800966 
559	 0.161215926099682 
560	 0.160472016304156 
561	 0.159502064106281 
562	 0.158347979844543 
563	 0.157251745261615 
564	 0.155982259887113 
565	 0.154617143255508 
566	 0.153161802822547 
567	 0.15146231266889 
568	 0.149935397220649 
569	 0.148312711361766 
570	 0.146366183691006 
571	 0.14481381731894 
572	 0.143380637325763 
573	 0.14187697962213 
574	 0.140229952525955 
575	 0.138895144907454 
576	 0.137727945815095 
577	 0.136577176710946 
578	 0.135505693893606 
579	 0.134268631714837 
580	 0.133042324495107 
581	 0.132121953523979 
582	 0.131452288902124 
583	 0.130792362258646 
584	 0.130027107980615 
585	 0.129207940913518 
586	 0.128513570343135 
587	 0.127852006203266 
588	 0.127138974841184 
589	 0.126737799874099 
590	 0.126224823060115 
591	 0.125650590697718 
592	 0.125290490760602 
593	 0.12493013785885 
594	 0.124497732379232 
595	 0.123966082461588 
596	 0.123330481537734 
597	 0.122982693393452 
598	 0.122713379096312 
599	 0.122239692542663 
600	 0.121843599979734 
601	 0.121406461165446 
602	 0.120948201746674 
603	 0.120612467768892 
604	 0.120125936903462 
605	 0.119440524837213 
606	 0.118639042785027 
607	 0.118028146880757 
608	 0.117409347013019 
609	 0.116763311823777 
610	 0.116142365608839 
611	 0.115458545512858 
612	 0.114587570935222 
613	 0.113613614382299 
614	 0.112925803742172 
615	 0.112105675811526 
616	 0.111224174852737 
617	 0.110469355927762 
618	 0.109859299724019 
619	 0.10935186704621 
620	 0.108840918283528 
621	 0.108215190017145 
622	 0.10775144230163 
623	 0.107412365719767 
624	 0.107151775242452 
625	 0.10702635214505 
626	 0.10693693058019 
627	 0.106783742223283 
628	 0.106521232015619 
629	 0.106429542683746 
630	 0.106304830789869 
631	 0.106084862339687 
632	 0.105903744735441 
633	 0.10554908149647 
634	 0.105102180285788 
635	 0.104635516122428 
636	 0.104004249267276 
637	 0.103301939406144 
638	 0.102425251085231 
639	 0.101211812324654 
640	 0.100236648595621 
641	 9.91361072780816E-02 
642	 9.77925913061355E-02 
643	 9.66407851875284E-02 
644	 9.55288429347567E-02 
645	 9.45791887815725E-02 
646	 9.38559436071554E-02 
647	 9.27584680857438E-02 
648	 9.17971465604173E-02 
649	 9.10011785784156E-02 
650	 8.99368303786509E-02 
651	 8.94717276506539E-02 
652	 8.93548374803908E-02 
653	 8.91675061417908E-02 
654	 8.84450277921578E-02 
655	 8.76321198455029E-02 
656	 8.69310454530509E-02 
657	 8.64777863542105E-02 
658	 8.58548676883488E-02 
659	 8.49047686644174E-02 
660	 8.37266741733938E-02 
661	 8.27503948724711E-02 
662	 8.19676007293167E-02 
663	 8.10162940236332E-02 
664	 7.97411725684048E-02 
665	 0.078853785187561 
666	 0.078142921705139 
667	 7.75568583027656E-02 
668	 7.71213762263795E-02 
669	 7.66367071267083E-02 
670	 0.07610859736002 
671	 7.56317466436272E-02 
672	 7.53954581186083E-02 
673	 7.55245057860835E-02 
674	 7.55773873598172E-02 
675	 7.52681162457131E-02 
676	 7.56986813466354E-02 
677	 7.62650346943449E-02 
678	 0.076682745152117 
679	 7.70040883758446E-02 
680	 7.77276565673413E-02 
681	 7.83358608728181E-02 
682	 7.87992974765793E-02 
683	 0.080496728325191 
684	 8.26222739299909E-02 
685	 8.49848212380916E-02 
686	 8.79192113206061E-02 
687	 9.16410020563998E-02 
688	 9.52100744760903E-02 
689	 0.098239981310662 
690	 0.102019730703157 
691	 0.106492507289498 
692	 0.111631688660536 
693	 0.117608384258408 
694	 0.124278991125582 
695	 0.131009825834679 
696	 0.137440880589693 
697	 0.144069461958091 
698	 0.151220082267176 
699	 0.159410184184244 
700	 0.168301922249884 
701	 0.176924696297936 
702	 0.18569622050719 
703	 0.194391844125782 
704	 0.202958209398518 
705	 0.211181173730175 
706	 0.219921100688787 
707	 0.228855010351351 
708	 0.237403913243864 
709	 0.246221161087765 
710	 0.254985649870372 
711	 0.263609154045034 
712	 0.272608238549759 
713	 0.281772356581415 
714	 0.290793401478278 
715	 0.299666530171099 
716	 0.309335597421006 
717	 0.32032259790624 
718	 0.332092928655491 
719	 0.342701209538095 
720	 0.352220163569857 
721	 0.359131880867507 
722	 0.365039127079443 
723	 0.373374155686384 
724	 0.382721940894379 
725	 0.391691242152384 
726	 0.399385002367853 
727	 0.406867676197823 
728	 0.414170303587115 
729	 0.421376152350704 
730	 0.428351020248397 
731	 0.433750872199095 
732	 0.438366627910073 
733	 0.442927154086496 
734	 0.447834361547138 
735	 0.452653998534669 
736	 0.457398683822586 
737	 0.461843633411655 
738	 0.465658925182425 
739	 0.469228698264761 
740	 0.472713757172001 
741	 0.476089098825142 
742	 0.479016936448351 
743	 0.481820886327429 
744	 0.484624377777697 
745	 0.487134616650243 
746	 0.489303276330306 
747	 0.491339748311464 
748	 0.493438076894756 
749	 0.49543110432851 
750	 0.497235950666432 
751	 0.498825799606163 
752	 0.500220624540924 
753	 0.501406209092145 
754	 0.50231493722124 
755	 0.503125248255302 
756	 0.504333665906613 
757	 0.505301372233775 
758	 0.506393761953823 
759	 0.508482375546288 
760	 0.512101257128007 
761	 0.514916749491487 
762	 0.514635663439689 
763	 0.513775544761397 
764	 0.513077949478153 
765	 0.512862029118445 
766	 0.512661775481082 
767	 0.511781372775741 
768	 0.511771447486563 
769	 0.512021593505942 
770	 0.512080007406316 
771	 0.512368836249764 
772	 0.512701246539531 
773	 0.513043614013287 
774	 0.513372162678072 
775	 0.513423185880803 
776	 0.513664305146586 
777	 0.513940398402583 
778	 0.513653707326007 
779	 0.514159005155137 
780	 0.514831056322903 
781	 0.515165836858872 
782	 0.515463779913358 
783	 0.51559541231299 
784	 0.515639925706807 
785	 0.515772469772873 
786	 0.516310592185767 
787	 0.516722425881067 
788	 0.516852997127022 
789	 0.516865406239286 
790	 0.517124689218559 
791	 0.517550374172921 
792	 0.517967367135941 
793	 0.518192218546147 
794	 0.518595307572535 
795	 0.518914369010273 
796	 0.518929938096838 
797	 0.518826609732652 
798	 0.519109043996195 
799	 0.519639244775816 
800	 0.520065232416324 
801	 0.520391528287303 
802	 0.520552521602578 
803	 0.520607770797938 
804	 0.520712303499676 
805	 0.520906965027988 
806	 0.521257650434906 
807	 0.52171325426543 
808	 0.522061935157962 
809	 0.522174642546203 
810	 0.522339186005653 
811	 0.522782882180492 
812	 0.523140830991356 
813	 0.523532533281279 
814	 0.523781118546754 
815	 0.523720628504126 
816	 0.524273896526485 
817	 0.524661958417737 
818	 0.524695319808394 
819	 0.524732978259689 
820	 0.524598248920616 
821	 0.524505584910317 
822	 0.524587066873097 
823	 0.524826776382321 
824	 0.525398073120911 
825	 0.525779521649674 
826	 0.52571812165796 
827	 0.525660544503165 
828	 0.525664174146338 
829	 0.525821503432438 
830	 0.526107016992841 
831	 0.526080226456858 
832	 0.526376456473236 
833	 0.526713096965649 
834	 0.52647867017838 
835	 0.526622006424057 
836	 0.52683670823969 
837	 0.526933125049782 
838	 0.526951165402932 
839	 0.527188996253859 
840	 0.527430501330971 
841	 0.527594754046888 
842	 0.527964433252093 
843	 0.527861391803215 
844	 0.52757437216845 
845	 0.527576485981913 
846	 0.528147028341679 
847	 0.528663561569721 
848	 0.528761207208201 
849	 0.528453991765718 
850	 0.528896953761228 
851	 0.529357196180707 
852	 0.529455137884617 
853	 0.529236015916647 
854	 0.529421992793899 
855	 0.529400901423375 
856	 0.529220641379002 
857	 0.529604850439362 
858	 0.529889401784477 
859	 0.530069707643818 
860	 0.530176767706073 
861	 0.53015438700305 
862	 0.530117994925995 
863	 0.530156858609623 
864	 0.530374000470802 
865	 0.530964847625049 
866	 0.531119594873668 
867	 0.531179366194451 
868	 0.531594745730408 
869	 0.531784676161735 
870	 0.531323866562119 
871	 0.530979167643719 
872	 0.531669822906989 
873	 0.532241485617643 
874	 0.532561644863719 
875	 0.532743740392702 
876	 0.533013782901705 
877	 0.533212695366653 
878	 0.533489961951031 
879	 0.53346579901029 
880	 0.532545315854446 
881	 0.533490291390936 
882	 0.534216437013147 
883	 0.533874930985761 
884	 0.534073932707866 
885	 0.534038351354825 
886	 0.533935528542075 
887	 0.534158464355118 
888	 0.535167061479934 
889	 0.535775349011927 
890	 0.535753685752704 
891	 0.535277303135429 
892	 0.534734410200684 
893	 0.53610206886686 
894	 0.537297322244279 
895	 0.535986878622891 
896	 0.535914166812717 
897	 0.537127774188174 
898	 0.537538280005784 
899	 0.535598295577233 
900	 0.536769274356574 
901	 0.538176225256552 
902	 0.537930722420082 
903	 0.535871839712219 
904	 0.535656699156654 
905	 0.537644251013703 
906	 0.539120494621006 
907	 0.537013839776608 
908	 0.537596973238653 
909	 0.539431988741338 
910	 0.540224755074738 
911	 0.538479204554637 
912	 0.538572350463993 
913	 0.539527279676543 
914	 0.540556166860725 
915	 0.541358716114564 
916	 0.541096352477889 
917	 0.540639920848664 
918	 0.540247020496733 
919	 0.539753568503 
920	 0.541563004474874 
921	 0.541316556588333 
922	 0.539639614017036 
923	 0.541892065371232 
924	 0.543332030486749 
925	 0.541346149714494 
926	 0.538274358901911 
927	 0.542650824621657 
928	 0.541366731880292 
929	 0.536562884754369 
930	 0.531839792634442 
931	 0.526627563298813 
932	 0.514341967443378 
933	 0.521946679947992 
934	 0.549317151900853 
935	 0.526475232381731 
936	 0.513886645029126 
937	 0.514101233990595 
938	 0.519341442350149 
939	 0.524000072981938 
940	 0.52661520574716 
941	 0.520982146942665 
942	 0.517472917693168 
943	 0.541894487275728 
944	 0.531886043951976 
945	 0.5167466107895 
946	 0.518850612253798 
947	 0.523358201356888 
948	 0.523322545990799 
949	 0.527253832005759 
950	 0.531794808826358 
951	 0.521849701842253 
952	 0.520701352578146 
953	 0.522331222140678 
954	 0.521652459982905 
955	 0.519823733656683 
956	 0.527757087114792 
957	 0.53473425085204 
958	 0.532972473961785 
959	 0.522416624047207 
960	 0.523597628786787 
961	 0.52756761236673 
962	 0.5294897895612 
963	 0.530409747184007 
964	 0.532419858774562 
965	 0.531988229890768 
966	 0.531036050835014 
967	 0.533138909811094 
968	 0.532111280770716 
969	 0.536661044605616 
970	 0.540347251673176 
971	 0.533547449147935 
972	 0.53444539828699 
973	 0.531933046700222 
974	 0.530138872263371 
975	 0.537092987611773 
976	 0.537560224490217 
977	 0.534466585104747 
978	 0.531201011372804 
979	 0.530978660769582 
980	 0.5370052392617 
981	 0.539370808466065 
982	 0.538329865544926 
983	 0.53640789269872 
984	 0.53211118465718 
985	 0.539083701432344 
986	 0.544969120163695 
987	 0.540811018347554 
988	 0.536936405020068 
989	 0.534448662838464 
990	 0.534272141722487 
991	 0.536015252485342 
992	 0.538004265956474 
993	 0.539492239247701 
994	 0.540855525851795 
995	 0.540925129581903 
996	 0.537716247545136 
997	 0.537806334630656 
998	 0.538336522807559 
999	 0.538220125272558 
1000	 0.53835704788762 
1001	 0.545551979721828 
1002	 0.546683983365326 
1003	 0.551631859717381 
1004	 0.552788903979581 
1005	 0.553754923318131 
1006	 0.554640455016342 
1007	 0.554107872112357 
1008	 0.553035617842715 
1009	 0.55130278602985 
1010	 0.55095021040053 
1011	 0.550385595441993 
1012	 0.549498999369678 
1013	 0.554163391840448 
1014	 0.55718035328501 
1015	 0.556701670581085 
1016	 0.559186875614424 
1017	 0.559143232511044 
1018	 0.555339929030185 
1019	 0.555166179637986 
1020	 0.556572243143716 
1021	 0.556141284174504 
1022	 0.55668891820394 
1023	 0.556985372849602 
1024	 0.556180119613275 
1025	 0.555022397285911 
1026	 0.556415511445681 
1027	 0.555497063113537 
1028	 0.551552053448837 
1029	 0.549564215916665 
1030	 0.549633789404782 
1031	 0.551816108821081 
1032	 0.552970558245393 
1033	 0.556612804657558 
1034	 0.557546616223493 
1035	 0.555715568793975 
1036	 0.555492243172768 
1037	 0.555135361702227 
1038	 0.55726829340883 
1039	 0.556713978697677 
1040	 0.555746394357029 
1041	 0.555970652291292 
1042	 0.554639262822223 
1043	 0.555431382527511 
1044	 0.55562871432697 
1045	 0.555837713370893 
1046	 0.558931135833165 
1047	 0.561375274697349 
1048	 0.562305633808518 
1049	 0.562472746219253 
1050	 0.559890754890309 
1051	 0.558766485804785 
1052	 0.557118722578833 
1053	 0.557658386184359 
1054	 0.557773513669867 
1055	 0.558228746428387 
1056	 0.559858945225943 
1057	 0.559788988638964 
1058	 0.558541983074701 
1059	 0.558035872021037 
1060	 0.557695394722176 
1061	 0.55824648790939 
1062	 0.559032374385771 
1063	 0.558757461523009 
1064	 0.557727656757294 
1065	 0.554961514731596 
1066	 0.551333724211326 
1067	 0.550367726661723 
1068	 0.552433462264581 
1069	 0.553841719884553 
1070	 0.556501580401075 
1071	 0.560312617791188 
1072	 0.5610837931073 
1073	 0.561297938725254 
1074	 0.56049902657787 
1075	 0.558057863639411 
1076	 0.556310886688525 
1077	 0.555842714810122 
1078	 0.554479726098565 
1079	 0.554313306466241 
1080	 0.554904807843022 
1081	 0.556903730478597 
1082	 0.555628161865301 
1083	 0.555766765072694 
1084	 0.557019804760766 
1085	 0.555858588988269 
1086	 0.556302162757961 
1087	 0.556139907081861 
1088	 0.555452471854741 
1089	 0.555792098961013 
1090	 0.555568674354975 
1091	 0.557679622420383 
1092	 0.560527109227984 
1093	 0.561486550487957 
1094	 0.561090468307169 
1095	 0.560099140379024 
1096	 0.557757229393622 
1097	 0.556717822794693 
1098	 0.556453536362326 
1099	 0.558319095839908 
1100	 0.562990203017611 
1101	 0.564142334861487 
1102	 0.562693772603367 
1103	 0.561167342534988 
1104	 0.56041388293261 
1105	 0.559752098951406 
1106	 0.558880141673206 
1107	 0.563730201583682 
1108	 0.56717574620999 
1109	 0.567156093890965 
1110	 0.569625983059352 
1111	 0.574837047452574 
1112	 0.573168466660476 
1113	 0.564493695017468 
1114	 0.566527624833598 
1115	 0.564800929859192 
1116	 0.565095090026668 
1117	 0.576672830731739 
1118	 0.577914887946417 
1119	 0.565585866018964 
1120	 0.547025798943416 
1121	 0.523890307741545 
1122	 0.521671139420587 
1123	 0.548751344996676 
1124	 0.542414426437318 
1125	 0.517893723806282 
1126	 0.5183817733205 
1127	 0.505710308695908 
1128	 0.470132509541923 
1129	 0.475390408108006 
1130	 0.503561661279704 
1131	 0.501371522807031 
1132	 0.533118710060524 
1133	 0.542260848921221 
1134	 0.550708941969797 
1135	 0.576330591569923 
1136	 0.547697884692349 
1137	 0.549766009062554 
1138	 0.569291033079112 
1139	 0.557132851798272 
1140	 0.564396873558972 
1141	 0.564524867710339 
1142	 0.564176636787142 
1143	 0.553609196860987 
1144	 0.552166165450152 
1145	 0.561283564697904 
1146	 0.561920578587996 
1147	 0.561924851979303 
1148	 0.546812671301156 
1149	 0.522362804421656 
1150	 0.507279550570398 
1151	 0.506968216465341 
1152	 0.517537161498548 
1153	 0.531562568948379 
1154	 0.542058358875435 
1155	 0.537873203273051 
1156	 0.52477879279766 
1157	 0.522685342075773 
1158	 0.526537915180467 
1159	 0.529244241536328 
1160	 0.537047320708116 
1161	 0.539139997954776 
1162	 0.536327864660296 
1163	 0.538441300574285 
1164	 0.541573722639469 
1165	 0.545177924996661 
1166	 0.548137550149158 
1167	 0.548439533155976 
1168	 0.543494212603679 
1169	 0.538474742759976 
1170	 0.537655943980467 
1171	 0.536939265327259 
1172	 0.538204297906681 
1173	 0.540985859422893 
1174	 0.540217890155561 
1175	 0.537774893305761 
1176	 0.536450336546304 
1177	 0.534845178785573 
1178	 0.532896096114466 
1179	 0.53114475462811 
1180	 0.529643368461068 
1181	 0.5276521769873 
1182	 0.525984554653018 
1183	 0.524819788595603 
1184	 0.522306356575185 
1185	 0.522356647980666 
1186	 0.523733094857828 
1187	 0.525541456344403 
1188	 0.530990755938344 
1189	 0.533832371365276 
1190	 0.530827606751397 
1191	 0.528884940352422 
1192	 0.528865499806143 
1193	 0.529016162548065 
1194	 0.530338598091407 
1195	 0.532138419510646 
1196	 0.535104341884216 
1197	 0.53564535780228 
1198	 0.535722517668569 
1199	 0.535932925063992 
1200	 0.534559506361344 
1201	 0.534152923364127 
1202	 0.534882889999406 
1203	 0.534549199688427 
1204	 0.533838215655061 
1205	 0.534991428055167 
1206	 0.532726421531635 
1207	 0.532909505724197 
1208	 0.534370384917181 
1209	 0.531003136927291 
1210	 0.530529861249867 
1211	 0.531270832012444 
1212	 0.531516486125874 
1213	 0.532817476493412 
1214	 0.532957475561932 
1215	 0.532461810818793 
1216	 0.532426626199402 
1217	 0.531524266051861 
1218	 0.531133377377967 
1219	 0.531128827554328 
1220	 0.531733403864968 
1221	 0.532579284029008 
1222	 0.533657595238984 
1223	 0.535445047874852 
1224	 0.536020781036994 
1225	 0.536015748432309 
1226	 0.535470529693805 
1227	 0.535188563960323 
1228	 0.536526382304211 
1229	 0.537455314977768 
1230	 0.539471013829065 
1231	 0.539940698842568 
1232	 0.540111423669339 
1233	 0.539261370590208 
1234	 0.536871809449308 
1235	 0.536062753267866 
1236	 0.534440099577787 
1237	 0.53400699301675 
1238	 0.535139815165959 
1239	 0.535801823269567 
1240	 0.537184011290661 
1241	 0.538418129294976 
1242	 0.540504761191287 
1243	 0.540665231585852 
1244	 0.539670179361369 
1245	 0.540153307495518 
1246	 0.53953614229716 
1247	 0.539216691561733 
1248	 0.539755692232866 
1249	 0.541073446940984 
1250	 0.541566334543423 
1251	 0.542822312075944 
1252	 0.542971363204843 
1253	 0.542277416396659 
1254	 0.541941265339957 
1255	 0.540856240847372 
1256	 0.540292433685233 
1257	 0.540280019224041 
1258	 0.539732848827796 
1259	 0.538679750666615 
1260	 0.538652449455959 
1261	 0.53846609135423 
1262	 0.538865765330663 
1263	 0.541304207750793 
1264	 0.542295947901748 
1265	 0.541634250764109 
1266	 0.542794099291684 
1267	 0.542120087752802 
1268	 0.541437739690791 
1269	 0.541827029943518 
1270	 0.543254479422104 
1271	 0.543674095938845 
1272	 0.544288092337799 
1273	 0.544212592988784 
1274	 0.543374198799893 
1275	 0.542611085128185 
1276	 0.541520343161109 
1277	 0.541332123507971 
1278	 0.541666389349402 
1279	 0.541498375258165 
1280	 0.54095471187781 
1281	 0.541038761356696 
1282	 0.54198015251426 
1283	 0.541636606509298 
1284	 0.540676694655039 
1285	 0.540616883514523 
1286	 0.540747791550458 
1287	 0.538731600409847 
1288	 0.537876784440438 
1289	 0.538577670532054 
1290	 0.539253439342534 
1291	 0.539672177181034 
1292	 0.540864107027815 
1293	 0.544028658146828 
1294	 0.545344423179872 
1295	 0.546155988062458 
1296	 0.546133226992496 
1297	 0.544998518186725 
1298	 0.543788422299069 
1299	 0.542143012785952 
1300	 0.540159213588813 
1301	 0.536055363666401 
1302	 0.534958266222111 
1303	 0.534892520132925 
1304	 0.535032275892923 
1305	 0.539634897656522 
1306	 0.540542257803331 
1307	 0.539313437587485 
1308	 0.537189627079951 
1309	 0.533509927451023 
1310	 0.531743586901767 
1311	 0.530981388435524 
1312	 0.530770125614291 
1313	 0.529904093850372 
1314	 0.529234358803424 
1315	 0.527609028547918 
1316	 0.525442862203588 
1317	 0.52366511370629 
1318	 0.520712118917912 
1319	 0.519052248451346 
1320	 0.517774725658796 
1321	 0.517673518209091 
1322	 0.518747888914138 
1323	 0.520903928787578 
1324	 0.527312052727254 
1325	 0.528638561304028 
1326	 0.527989798854054 
1327	 0.527163975792429 
1328	 0.521443087948147 
1329	 0.516524419127083 
1330	 0.511231763158726 
1331	 0.506011178891209 
1332	 0.496217121658211 
1333	 0.492090941054284 
1334	 0.496661202185802 
1335	 0.500679316780462 
1336	 0.505610101335482 
1337	 0.518883888564564 
1338	 0.51911901322449 
1339	 0.510964351203412 
1340	 0.506159551051172 
1341	 0.493481452249231 
1342	 0.488465491486563 
1343	 0.48756178044491 
1344	 0.487047148531698 
1345	 0.489123895803467 
1346	 0.498070934372294 
1347	 0.536893094994447 
1348	 0.562623749166947 
1349	 0.605357765309387 
1350	 0.655774287422344 
1351	 0.388517217345455 
1352	 28.1395138940437 
1353	 0.958032598267974 
1354	 0.844095088217228 
1355	 0.815413399742869 
1356	 0.879328568158651 
1357	 1.33007696656665 
1358	 1.46336198586822 
1359	 1.61053598951621 
1360	 1.61390014713473 
1361	 0.796953371181882 
1362	 0.382516808932861 
1363	 0.417832359327173 
1364	 0.807250715687674 
1365	 1.18342848923215 
1366	 7.7241258070338 
1367	-10.1354502552443 
1368	-1.43492848330526 
1369	-2.24392774537411 
1370	 4.95882078320004 
1371	 1.96046262034383 
1372	 0.838168814347058 
1373	 0.791597712200627 
1374	 0.906300782672836 
1375	 0.978491294408939 
1376	 2.28873870341831 
1377	 2.6014496295099 
1378	 1.11833374161553 
1379	 1.02804750096539 
1380	 0.904879054467435 
1381	 0.952781388852198 
1382	 2.16942745200207 
1383	 3.87147746434524 
1384	 5.46786329309898 
1385	 7.17772839970729 
1386	 4.21040308529487 
1387	 1.8968662676187 
1388	 1.8973015497589 
1389	 5.21153957040392 
1390	 5.81986987533955 
1391	 8.02542579553153 
1392	 11.8980970747377 
1393	 16.6563883595272 
1394	 7.76805825834762 
1395	 8.26228289361751 
1396	 2.53151557329298 
1397	 0.760618314886823 
1398	 0.507380390716472 
1399	 0.345652262309055 
1400	 0.370269382104057 
1401	 0.697918350417447 
1402	 0.661055939582199 
1403	 0.58712303863996 
1404	 0.468352347894491 
1405	-0.129481530892334 
1406	-0.246549337539733 
1407	 1.27429989258187E-02 
1408	 8.52235096613462E-02 
1409	 0.270334858592886 
1410	 0.406748990659375 
1411	 0.380038545781757 
1412	 0.580039662748227 
1413	 0.786798795993488 
1414	 1.01755429011224 
1415	 2.02446356533689 
1416	 2.28780622417123 
1417	 1.63253488885292 
1418	 1.3012459932879 
1419	 0.667277629406902 
1420	 0.474733155798516 
1421	 0.423103845738237 
1422	 0.555185425870084 
1423	 0.556958133447239 
1424	 1.44584373489126 
1425	 2.94371891939972 
1426	 3.71214512553809 
1427	 3.26900033384789 
1428	 4.7564230557078 
1429	 3.37398251845547 
1430	 2.23557969438437 
1431	 1.73412095170128 
1432	 0.591663961232432 
1433	 0.313810884963829 
1434	 0.593000484270451 
1435	 0.44750588905649 
1436	 0.318486144082919 
1437	-6.74489381704199E-02 
1438	-0.447337963833441 
1439	-0.646548708581879 
1440	-0.851429094950598 
1441	-0.930441756366204 
1442	-1.65692683415918 
1443	-1.58427339760964 
1444	-0.62920170354501 
1445	-0.158800837202223 
1446	 0.415715651436008 
1447	 0.454674331994594 
1448	 0.321175421268341 
1449	 0.241171637618916 
1450	 4.04668150141988E-02 
1451	 0.0340874397777 
1452	 0.128223620025176 
1453	 0.151532192433269 
1454	 0.20462095851605 
1455	 0.246875159510475 
1456	 0.192783458066767 
1457	 0.148313748110611 
1458	 0.153573960876156 
1459	 0.188085618248089 
1460	 0.171372613365138 
1461	 0.16140208562225 
1462	 0.136728530854638 
1463	 5.05429699028206E-02 
1464	 6.08415755887857E-02 
1465	 0.142736008714127 
1466	 0.168061035843947 
1467	 0.240825712415624 
1468	 0.27137346934052 
1469	 0.19442206857181 
1470	 0.214192493149031 
1471	 0.315092644273163 
1472	 0.306161254030587 
1473	 0.275490458414044 
1474	 0.247034873572934 
1475	 0.151494828931176 
1476	 0.146562463404873 
1477	 0.182360167412798 
1478	 0.205724291518424 
1479	 0.282443325845783 
1480	 0.296486258525579 
1481	 0.275389807309622 
1482	 0.262813578068292 
1483	 0.219475320481002 
1484	 0.207365717554782 
1485	 0.207413341478461 
1486	 0.212885978401285 
1487	 0.231576958679917 
1488	 0.236163090107699 
1489	 0.230749487848408 
1490	 0.237717927351732 
1491	 0.243335629855492 
1492	 0.251720638981446 
1493	 0.268880730412533 
1494	 0.279714291994252 
1495	 0.287767121484433 
1496	 0.295126507072663 
1497	 0.302298346834828 
1498	 0.308014556665594 
1499	 0.313942771407896 
1500	 0.315851531777414 
1501	 0.324037213135373 
1502	 0.324916506207019 
1503	 0.325717171468325 
1504	 0.329296370916502 
1505	 0.32978961134278 
1506	 0.328845428153723 
1507	 0.326573806206475 
1508	 0.32271601096728 
1509	 0.321584585138763 
1510	 0.318755421762291 
1511	 0.319955122256254 
1512	 0.324697979538181 
1513	 0.327350783557937 
1514	 0.330328819830912 
1515	 0.333469063533539 
1516	 0.336847809992822 
1517	 0.339339495789649 
1518	 0.34109952555608 
1519	 0.344065696302626 
1520	 0.348599629678616 
1521	 0.348998443502286 
1522	 0.349942455293098 
1523	 0.347589934448816 
1524	 0.339045307489719 
1525	 0.336408238774734 
1526	 0.333736690247175 
1527	 0.334249867224879 
1528	 0.337970442752994 
1529	 0.341843319302418 
1530	 0.348844038722693 
1531	 0.352826494429906 
1532	 0.357098102476087 
1533	 0.359363896117407 
1534	 0.358818589191012 
1535	 0.35969719012216 
1536	 0.361876331077039 
1537	 0.360996036412275 
1538	 0.357053491616834 
1539	 0.356320545654634 
1540	 0.354064423680972 
1541	 0.354551350789406 
1542	 0.359271680652391 
1543	 0.362689946181899 
1544	 0.366842096407283 
1545	 0.369613690487394 
1546	 0.372698494682835 
1547	 0.374202688365886 
1548	 0.372493685062683 
1549	 0.373445299120216 
1550	 0.375923654819129 
1551	 0.37719477526957 
1552	 0.380371940039681 
1553	 0.381166886042132 
1554	 0.378538195145682 
1555	 0.377242456428111 
1556	 0.375751141036145 
1557	 0.374384841058726 
1558	 0.372899203647329 
1559	 0.372661520801397 
1560	 0.371911887621014 
1561	 0.372929373464645 
1562	 0.376031254635765 
1563	 0.380251022670021 
1564	 0.38291779927085 
1565	 0.383770703001742 
1566	 0.382392882119339 
1567	 0.379905733664799 
1568	 0.379131080912459 
1569	 0.383887102793303 
1570	 0.389596091770687 
1571	 0.395959642408264 
1572	 0.40125689896619 
1573	 0.401543329855613 
1574	 0.40091337597284 
1575	 0.398104006545128 
1576	 0.393447544753298 
1577	 0.390949374788747 
1578	 0.390318209294819 
1579	 0.391341154229076 
1580	 0.39394070508482 
1581	 0.397157248020875 
1582	 0.399754068382515 
1583	 0.400515502885788 
1584	 0.402994781301441 
1585	 0.405088199391713 
1586	 0.405302275876734 
1587	 0.404351264733762 
1588	 0.403933460437951 
1589	 0.402592699425673 
1590	 0.401591469107519 
1591	 0.400196674632714 
1592	 0.400888533101725 
1593	 0.401752227369147 
1594	 0.402647010208907 
1595	 0.405944195656135 
1596	 0.40685632989302 
1597	 0.406118773881966 
1598	 0.407048785073011 
1599	 0.408100022961327 
1600	 0.40987708448499 
1601	 0.413057586562495 
1602	 0.413112928477982 
1603	 0.412378111219305 
1604	 0.411626641634464 
1605	 0.408855663051306 
1606	 0.407371735345557 
1607	 0.405846229613316 
1608	 0.405699606698672 
1609	 0.406060179180045 
1610	 0.407154559119857 
1611	 0.409501158939637 
1612	 0.412676948876907 
1613	 0.417210905804643 
1614	 0.419610087938349 
1615	 0.422901944839523 
1616	 0.423566636722597 
1617	 0.421828511232717 
1618	 0.419324239275469 
1619	 0.414635086962226 
1620	 0.413172935737007 
1621	 0.411465033441307 
1622	 0.411119038490677 
1623	 0.413251899855482 
1624	 0.415021806140153 
1625	 0.416932671093098 
1626	 0.418484681268281 
1627	 0.420412276169533 
1628	 0.423356269216739 
1629	 0.427472698214571 
1630	 0.427395466513083 
1631	 0.427010415271142 
1632	 0.425969100595214 
1633	 0.419321097392295 
1634	 0.419979495042019 
1635	 0.424748576751714 
1636	 0.427756514609265 
1637	 0.433698019720374 
1638	 0.435855690361096 
1639	 0.436510873203536 
1640	 0.436672172736156 
1641	 0.43518881650394 
1642	 0.433357906825119 
1643	 0.429634980529111 
1644	 0.430146929470407 
1645	 0.431616372749357 
1646	 0.433386151880621 
1647	 0.438654034414429 
1648	 0.439670979176365 
1649	 0.437754585267302 
1650	 0.43858220059192 
1651	 0.441823984272911 
1652	 0.440033270972875 
1653	 0.436102143519835 
1654	 0.434768854391835 
1655	 0.429888099571412 
1656	 0.426871001105647 
1657	 0.427585484259378 
1658	 0.427173900489508 
1659	 0.425021542115254 
1660	 0.42568844581151 
1661	 0.429215530101657 
1662	 0.429022394048604 
1663	 0.427222828037325 
1664	 0.425304974843554 
1665	 0.427617405176312 
1666	 0.428566078120669 
1667	 0.431088514623016 
1668	 0.43324006197623 
1669	 0.432587050640456 
1670	 0.432237509048145 
1671	 0.431605655800274 
1672	 0.431698060960588 
1673	 0.432766904312169 
1674	 0.431016678860318 
1675	 0.430402110767487 
1676	 0.431439885467016 
1677	 0.42819694004674 
1678	 0.429187426032128 
1679	 0.430533637603877 
1680	 0.427844800355704 
1681	 0.426375897292011 
1682	 0.422380659128441 
1683	 0.419617297673398 
1684	 0.420594463729098 
1685	 0.422927358085408 
1686	 0.423942887478493 
1687	 0.423006942077727 
1688	 0.419455897273307 
1689	 0.413730677944098 
1690	 0.410674203533629 
1691	 0.408590711954998 
1692	 0.409484080171658 
1693	 0.411485542871152 
1694	 0.413606448049303 
1695	 0.419477010278993 
1696	 0.423958223712004 
1697	 0.425062484624934 
1698	 0.426471460218082 
1699	 0.426243825499374 
1700	 0.419123913314348 
1701	 0.413639890383436 
1702	 0.410238591717017 
1703	 0.408313177389809 
1704	 0.413789324224749 
1705	 0.41588936528697 
1706	 0.412654961616596 
1707	 0.409524663145856 
1708	 0.403089783820982 
1709	 0.396717133527261 
1710	 0.398056156226226 
1711	 0.397151783454448 
1712	 0.39580767812488 
1713	 0.404477896111642 
1714	 0.414268004862893 
1715	 0.419068088591321 
1716	 0.419996885687336 
1717	 0.422849151502843 
1718	 0.423002654595723 
1719	 0.420919395857411 
1720	 0.423112491943299 
1721	 0.421324617489813 
1722	 0.413946985512122 
1723	 0.410452646138288 
1724	 0.407849553523804 
1725	 0.405672675082666 
1726	 0.402918292621184 
1727	 0.40443183937552 
1728	 0.410905446761839 
1729	 0.413971936497167 
1730	 0.420214957713146 
1731	 0.421983083465635 
1732	 0.417789021893114 
1733	 0.415197794959266 
1734	 0.411748559811243 
1735	 0.405984262875161 
1736	 0.399741651150916 
1737	 0.394707320030615 
1738	 0.385642485323527 
1739	 0.393952055909975 
1740	 0.393624680139467 
1741	 0.386465882132955 
1742	 0.391176183532571 
1743	 0.394111238568 
1744	 0.395928464043143 
1745	 0.402734820141227 
1746	 0.396828303753548 
1747	 0.387328208708985 
1748	 0.380166061570388 
1749	 0.379339122264022 
1750	 0.390282465593115 
1751	 0.392880219001993 
1752	 0.397590876926341 
1753	 0.410541631750693 
1754	 0.414127909102402 
1755	 0.422690646146464 
1756	 0.43536651874434 
1757	 0.431389232071877 
1758	 0.424738766791758 
1759	 0.41255575166335 
1760	 0.393299175515726 
1761	 0.386844693466434 
1762	 0.387167358644379 
1763	 0.394183299743962 
1764	 0.402422987514339 
1765	 0.400482592098539 
1766	 0.395343600115806 
1767	 0.390534395882565 
1768	 0.392988992779338 
1769	 0.398207982361113 
1770	 0.399376129240419 
1771	 0.402057640325086 
1772	 0.399974651896571 
1773	 0.392149649930855 
1774	 0.385271714738593 
1775	 0.37242780283317 
1776	 0.364482953888882 
1777	 0.37986374478132 
1778	 0.385781208819501 
1779	 0.404381331157406 
1780	 0.388805584572408 
1781	 0.38710588123703 
1782	 0.401538009780222 
1783	 0.414938001247148 
1784	 0.399926926655619 
1785	 0.377443941830671 
1786	 0.380490199251693 
1787	 0.362422787852137 
1788	 0.36046554099619 
1789	 0.405403849962203 
1790	 0.370738605517694 
1791	 0.299557295271874 
1792	 0.289860984061818 
1793	 0.236990977990357 
1794	 0.189106499902735 
1795	 0.221515307623536 
1796	 0.229758169404312 
1797	 0.143333786256438 
1798	 0.112580256812408 
1799	 0.115395261484299 
1800	-0.123463495020352 
1801	 0.746452859820589 
1802	 0.758779918309766 
1803	 0.720532524746772 
1804	 0.71620956503063 
1805	 0.609405043936556 
1806	 0.547226478155149 
1807	 0.601308876202003 
1808	 0.840231936671559 
1809	 0.881315076711987 
1810	 0.8637773697941 
1811	 0.935805813996645 
1812	 1.11716369351815 
1813	 1.05380253877007 
1814	 0.900663940548026 
1815	 0.856024391231925 
1816	 0.720102475556383 
1817	 0.558113861773048 
1818	 0.535822299797704 
1819	 0.660252707081525 
1820	 0.706398553417693 
1821	 0.778607360093851 
1822	 0.829643712242361 
1823	 0.813411117795587 
1824	 0.880599753878494 
1825	 0.919137065888999 
1826	 1.04930204815267 
1827	 1.25934832611212 
1828	 1.84843039057708 
1829	 1.75290123949801 
1830	 1.28195683523956 
1831	 1.23796381399687 
1832	 1.1031477402969 
1833	 1.01565917617369 
1834	 1.2503213761758 
1835	 1.28903739439837 
1836	 1.21892858412256 
1837	 0.966921653742597 
1838	 0.864481151023814 
1839	 0.72116892580438 
1840	 0.660873493314504 
1841	 0.644720050298972 
1842	 0.580125856121596 
1843	 0.594537612272124 
1844	 0.537918121491858 
1845	 0.323006537956118 
1846	 0.20473798700708 
1847	 0.232904519366636 
1848	 0.392205523989105 
1849	 0.429744698488033 
1850	 0.551591924954822 
1851	 0.645270618708303 
1852	 0.696480536905685 
1853	 0.666527950138305 
1854	 0.657008587832762 
1855	 0.656146892095461 
1856	 0.616599441861673 
1857	 0.42333204520797 
1858	 0.377430694388587 
1859	 0.41484060528248 
1860	 0.409838513055533 
1861	 0.403463325444687 
1862	 0.386947899811698 
1863	 0.342750958862612 
1864	 0.355906194284304 
1865	 0.391698181234692 
1866	 0.435626482517877 
1867	 0.508406155309097 
1868	 0.727337575886143 
1869	 0.738726185855324 
1870	 0.61363800474075 
1871	 0.54144668924653 
1872	 0.323729843958409 
1873	 0.263351127964455 
1874	 0.271355197809813 
1875	 0.307178939891101 
1876	 0.339992439192897 
1877	 0.542352682844275 
1878	 0.623492489030696 
1879	 0.751786456626647 
1880	 0.778750733788933 
1881	 0.724344086809445 
1882	 0.671240352194483 
1883	 0.480650175661756 
1884	 0.456505134896556 
1885	 0.580975719913479 
1886	 0.589413672655911 
1887	 0.683691394078043 
1888	 0.646500747069698 
1889	 0.607379671696137 
1890	 0.465700482337432 
1891	 0.432179620243443 
1892	 0.386381581158345 
1893	 0.400951373324539 
1894	 0.526788743796479 
1895	 0.569513901480185 
1896	 0.752070368188285 
1897	 0.751886781892188 
1898	 0.469761963828114 
1899	 0.377060897093203 
1900	 0.352338131170283 
1901	 0.310388379447057 
1902	 0.358790907548014 
1903	 0.597361719087437 
1904	 0.644018688421136 
1905	 0.657878838755373 
1906	 0.707309992319093 
1907	 0.546039036650528 
1908	 0.535637371521103 
1909	 0.899844270768771 
1910	 1.09602135873004 
1911	 1.17721359970137 
1912	 1.16635034304458 
1913	 1.18367026130878 
1914	 1.02984924336425 
1915	 0.959370637323162 
1916	 0.903831517522253 
1917	 0.856684453394712 
1918	 0.791980366261799 
1919	 0.800657475591845 
1920	 0.840792072087874 
1921	 0.979488418227912 
1922	 0.934566687524524 
1923	 0.796252696016186 
1924	 0.728731025376405 
1925	 0.569239472393326 
1926	 0.514182332619609 
1927	 0.563626989102372 
1928	 0.538868141350201 
1929	 0.453445557472519 
1930	 0.483992551708306 
1931	 0.669856149590883 
1932	 0.67246970802631 
1933	 0.78666462572673 
1934	 0.923011195798011 
1935	 0.942461143512567 
1936	 0.892784269538758 
1937	 0.816309437073328 
1938	 0.604756091344896 
1939	 0.559448366809452 
1940	 0.622414270541333 
1941	 0.513288398567567 
1942	 0.380959750265362 
1943	 0.402876145991502 
1944	 0.386482959134127 
1945	 0.308608336533127 
1946	 0.298932715148834 
1947	 0.500490729864102 
1948	 0.519353941167365 
1949	 0.319050821605293 
1950	 0.371328265565141 
1951	 0.554171425712382 
1952	 0.595222292203709 
1953	 0.674978992331954 
1954	 0.757930192511981 
1955	 0.709780412369224 
1956	 0.776965319297045 
1957	 0.747409025466605 
1958	 0.674746887363653 
1959	 0.666713250981383 
1960	 0.492915109327082 
1961	 0.515550555144124 
1962	 1.0675985453552 
1963	 1.15323711480995 
1964	 1.01423433127385 
1965	 0.836162676117295 
1966	 0.521609302122957 
1967	 0.275430213880538 
1968	 0.288612386468227 
1969	 0.383574102893576 
1970	 0.442683352086175 
1971	 0.601235111417194 
1972	 0.636064085269077 
1973	 0.603417844717574 
1974	 0.616216763295613 
1975	 0.635125324077559 
1976	 0.620311024801064 
1977	 0.592061734725033 
1978	 0.584477709878724 
1979	 0.525890978967133 
1980	 0.422554137727509 
1981	 0.409044897096423 
1982	 0.365972496995184 
1983	 0.328509762067947 
1984	 0.289276513318607 
1985	 0.27534810647106 
1986	 0.269382757490254 
1987	 0.273987268934112 
1988	 0.289264257997582 
1989	 0.330197928510293 
1990	 0.38354622198806 
1991	 0.397163509384161 
1992	 0.371400370947494 
1993	 0.369955986858901 
1994	 0.340076542913091 
1995	 0.306827586158378 
1996	 0.308608878620335 
1997	 0.339412662992015 
1998	 0.352756668469044 
1999	 0.37769889554314 
2000	 0.410549018992524 
2001	 0.447805803882664 
2002	 0.556249532538742 
2003	 0.639679428572519 
2004	 0.713685577603985 
2005	 0.791622519536144 
2006	 0.747629174460394 
2007	 0.696601659395249 
2008	 0.659983811388762 
2009	 0.592283198832876 
2010	 0.43278199055294 
2011	 0.32413093887288 
2012	 0.243248089863848 
2013	 0.193175399426869 
2014	 0.117684117330098 
2015	 0.158043357724821 
2016	 0.301877825262802 
2017	 0.353611017987897 
2018	 0.394295054840353 
2019	 0.467971151361897 
2020	 0.431355532865134 
2021	 0.431084976376346 
2022	 0.517358478845092 
2023	 0.510574929717387 
2024	 0.509367654568587 
2025	 0.528470727524577 
2026	 0.489996720271509 
2027	 0.392148458376643 
2028	 0.3628922049007 
2029	 0.356437396005485 
2030	 0.338888870585351 
2031	 0.356682415500371 
2032	 0.373851831280847 
2033	 0.343636442155398 
2034	 0.299065540250837 
2035	 0.289083162252174 
2036	 0.308096949175146 
2037	 0.318528951361047 
2038	 0.373930451747598 
2039	 0.390884068502654 
2040	 0.375193004889619 
2041	 0.366113354684082 
2042	 0.356645062816803 
2043	 0.32867606238971 
2044	 0.31169752603926 
2045	 0.327535422179322 
2046	 0.311812685932965 
2047	 0.276501456600504 
2048	 0.295712742061157 
2049	 0.273778061114393 
2050	 0.24690246323299 
2051	 0.297857649299054 
2052	 0.318913311019902 
2053	 0.329328653990241 
2054	 0.338638240385795 
2055	 0.359476076858613 
2056	 0.355861518496382 
2057	 0.337282848018106 
2058	 0.289032927968064 
2059	 0.307941336364565 
2060	 0.330588955177978 
2061	 0.315574300409264 
2062	 0.37114374779719 
2063	 0.372131113930825 
2064	 0.315868340213295 
2065	 0.306631026635972 
2066	 0.266820509604815 
2067	 0.254246846823085 
2068	 0.263966794937293 
2069	 0.275757605815007 
2070	 0.293274928843537 
2071	 0.316640452618488 
2072	 0.353883351944145 
2073	 0.375304424781333 
2074	 0.39570519307198 
2075	 0.405413257160345 
2076	 0.383115813426061 
2077	 0.380279888527078 
2078	 0.398327055369932 
2079	 0.403978171563843 
2080	 0.398411131471029 
2081	 0.379558562166371 
2082	 0.366975455176707 
2083	 0.322446942798592 
2084	 0.328815407069803 
2085	 0.368890184545357 
2086	 0.404367348795357 
2087	 0.415927158790723 
2088	 0.419050587419441 
2089	 0.414265182122756 
2090	 0.37599897320231 
2091	 0.355956732825572 
2092	 0.357505424169036 
2093	 0.36798145549528 
2094	 0.378035880609665 
2095	 0.375160712572811 
2096	 0.379117541423644 
2097	 0.354420907182267 
2098	 0.34131705588514 
2099	 0.351305927733318 
2100	 0.402948607440646 
2101	 0.416199568226716 
2102	 0.43557693702964 
2103	 0.423376008124719 
2104	 0.402894163290667 
2105	 0.397908412931913 
2106	 0.381786262764267 
2107	 0.384660082521011 
2108	 0.386920710414278 
2109	 0.3746986429904 
2110	 0.357198393209291 
2111	 0.352603073959872 
2112	 0.353467990582133 
2113	 0.334824654844927 
2114	 0.327969789403099 
2115	 0.337084824690661 
2116	 0.329634853056436 
2117	 0.305562475336911 
2118	 0.310913248428002 
2119	 0.324797462023096 
2120	 0.339225175072087 
2121	 0.367127062333457 
2122	 0.410638076762616 
2123	 0.444320026186229 
2124	 0.45397076020728 
2125	 0.438829095844899 
2126	 0.412917175066467 
2127	 0.374291349322878 
2128	 0.351497955718115 
2129	 0.351747604228412 
2130	 0.346345369605051 
2131	 0.346260938401713 
2132	 0.334570242649477 
2133	 0.321880399593833 
2134	 0.304956668906089 
2135	 0.300693982073445 
2136	 0.29787372232298 
2137	 0.287570838474011 
2138	 0.303210387463413 
2139	 0.336838167697743 
2140	 0.347638094615747 
2141	 0.394165500462046 
2142	 0.414742677868962 
2143	 0.396582082284398 
2144	 0.37401727550859 
2145	 0.331212318888588 
2146	 0.306739000994591 
2147	 0.30144120418377 
2148	 0.295528629071583 
2149	 0.278363053033156 
2150	 0.267884948283298 
2151	 0.238783553387379 
2152	 0.24890976565826 
2153	 0.307952815468433 
2154	 0.32871192372677 
2155	 0.361142111294394 
2156	 0.350653787416965 
2157	 0.332540241236631 
2158	 0.329043428265401 
2159	 0.337858740994799 
2160	 0.361970758987499 
2161	 0.363398176702854 
2162	 0.358443169109378 
2163	 0.342741403805495 
2164	 0.328750820119213 
2165	 0.308911229476568 
2166	 0.270105706057232 
2167	 0.232555819468474 
2168	 0.209273475449335 
2169	 0.235507622848666 
2170	 0.280279027476063 
2171	 0.313077224140351 
2172	 0.396367059945289 
2173	 0.423842421356151 
2174	 0.391181385502612 
2175	 0.388927777939836 
2176	 0.380133222600001 
2177	 0.366556238181708 
2178	 0.361691785984154 
2179	 0.37108793339233 
2180	 0.341335466404512 
2181	 0.323151585751422 
2182	 0.334070596988777 
2183	 0.333862926414206 
2184	 0.361209872834911 
2185	 0.372207361328183 
2186	 0.391094592297183 
2187	 0.40838528824887 
2188	 0.419806829420266 
2189	 0.449441194338274 
2190	 0.416670219792873 
2191	 0.396079285204943 
2192	 0.375857579670804 
2193	 0.32236943279885 
2194	 0.29395125787357 
2195	 0.28360814746439 
2196	 0.279508752127246 
2197	 0.267037487489349 
2198	 0.304774958259667 
2199	 0.383686506361736 
2200	 0.440445001316699 
2201	 0.5261914531629 
2202	 0.587208396341419 
2203	 0.559957416073244 
2204	 0.5217762967492 
2205	 0.462579116512461 
2206	 0.40403604399274 
2207	 0.352554929172132 
2208	 0.312106185956395 
2209	 0.325243253256153 
2210	 0.349793565695464 
2211	 0.395743648921818 
2212	 0.456941347794993 
2213	 0.454374970642202 
2214	 0.406024012094291 
2215	 0.377343472841416 
2216	 0.321420910423557 
2217	 0.313795238410775 
2218	 0.323503937605373 
2219	 0.347604579178885 
2220	 0.425591040952001 
2221	 0.45056464460372 
2222	 0.457389656997089 
2223	 0.461382838513 
2224	 0.433108922769576 
2225	 0.390379400296406 
2226	 0.411760384990526 
2227	 0.418936159343943 
2228	 0.415294572766934 
2229	 0.429518327456382 
2230	 0.400141519466615 
2231	 0.376502261641342 
2232	 0.377325834030471 
2233	 0.381718877494113 
2234	 0.401859818065133 
2235	 0.371483916437837 
2236	 0.364136189254891 
2237	 0.387004346841124 
2238	 0.333165721623707 
2239	 0.343941196117876 
2240	 0.368835134199798 
2241	 0.326076526182213 
2242	 0.335074905640318 
2243	 0.408136525413365 
2244	 0.426486509224549 
2245	 0.459806636471828 
2246	 0.445100250029774 
2247	 0.363741782935909 
2248	 0.340052574903503 
2249	 0.298832068019521 
2250	 0.304461780941318 
2251	 0.358450006144684 
2252	 0.401538088535525 
2253	 0.456016866183286 
2254	 0.494466264030303 
2255	 0.502889878180748 
2256	 0.523376335868515 
2257	 0.515482370283515 
2258	 0.499095606396506 
2259	 0.516489957160745 
2260	 0.516206222386264 
2261	 0.493873522794657 
2262	 0.535066679009269 
2263	 0.519077145907125 
2264	 0.438333047198679 
2265	 0.387730836472244 
2266	 0.325668973002533 
2267	 0.29636780603367 
2268	 0.330048422501369 
2269	 0.345729714247938 
2270	 0.329751780327921 
2271	 0.323668885948941 
2272	 0.284143978378423 
2273	 0.267674014195219 
2274	 0.275967308266717 
2275	 0.298542485911631 
2276	 0.357257260690277 
2277	 0.365498495246675 
2278	 0.366235474248021 
2279	 0.332079399523067 
2280	 0.182189069297866 
2281	 0.15509695340482 
2282	 0.198413071600415 
2283	 0.225522951999696 
2284	 0.300193837616719 
2285	 0.380165296040883 
2286	 0.426752581192278 
2287	 0.435620424017622 
2288	 0.417385388821033 
2289	 0.43123440837884 
2290	 0.390436883172192 
2291	 0.356274500703708 
2292	 0.348036592459539 
2293	 0.317821636397855 
2294	 0.29142930744759 
2295	 0.230722332861913 
2296	 0.206618312478908 
2297	 0.192556759482924 
2298	 0.19739866627914 
2299	 0.255195411091075 
2300	 0.238333527916801 
2301	 0.241817121159937 
2302	 0.265561498837056 
2303	 0.252234366294222 
2304	 0.268032847886222 
2305	 0.231208871180246 
2306	 0.193932419821443 
2307	 0.238109719938895 
2308	 0.253683393367552 
2309	 0.293189442344166 
2310	 0.318826678889072 
2311	 0.325765896117303 
2312	 0.334913165626732 
2313	 0.347183578307405 
2314	 0.350540608944464 
2315	 0.367008161528793 
2316	 0.352597143749941 
2317	 0.307958676984785 
2318	 0.265525178593807 
2319	 0.156687239599507 
2320	 0.160166366962497 
2321	 0.246406382874096 
2322	 0.289976652062399 
2323	 0.429885012374188 
2324	 0.465376265489773 
2325	 0.402662643298062 
2326	 0.363833594505396 
2327	 0.272251435535379 
2328	 0.267987483409887 
2329	 0.280692405617362 
2330	 0.297455415544147 
2331	 0.42430419291102 
2332	 0.462961469731695 
2333	 0.427544549689023 
2334	 0.446087667725516 
2335	 0.46303474395602 
2336	 0.429450200631828 
2337	 0.460940730307668 
2338	 0.472092843380912 
2339	 0.457455540012014 
2340	 0.435261779967659 
2341	 0.400881271261858 
2342	 0.397152842858146 
2343	 0.391320579379534 
2344	 0.414920387566775 
2345	 0.573991510812248 
2346	 0.682933590823318 
2347	 0.58402837367783 
2348	 0.490492060598902 
2349	 0.37271601709988 
2350	 0.223085343107444 
2351	 0.160324968710473 
2352	 0.214764714862987 
2353	 0.240146179340897 
2354	 0.247137412552221 
2355	 0.291825868835534 
2356	 0.266530309177789 
2357	 0.257837107263612 
2358	 0.278659419416517 
2359	 0.459551288135121 
2360	 0.709290174571937 
2361	 0.638162189750073 
2362	 0.597813922889658 
2363	 0.444887680062541 
2364	 0.397396585627502 
2365	 0.587097526161501 
2366	 0.711179868523174 
2367	 0.904089450439465 
2368	 0.873181584000904 
2369	 0.680824524228428 
2370	 0.608166078062687 
2371	 0.527994662062953 
2372	 0.417710102920201 
2373	 0.376992078355196 
2374	 0.380493054087439 
2375	 0.354408240104592 
2376	 0.311491626892425 
2377	 0.344979009072179 
2378	 0.461087210285514 
2379	 0.483783634331868 
2380	 0.480625345750266 
2381	 0.503061599175922 
2382	 0.419510980082063 
2383	 0.471765743887767 
2384	 0.739074033651062 
2385	 0.930162539990627 
2386	 0.96422704786552 
2387	 1.06965889971579 
2388	 1.40183652370109 
2389	 1.3194814393715 
2390	 1.05579130529204 
2391	 0.966558623053693 
2392	 0.769632216335635 
2393	 0.707460650233451 
2394	 0.771903376959836 
2395	 0.746182063290867 
2396	 0.603434834048708 
2397	 0.588064785078555 
2398	 0.704261253066307 
2399	 0.685675005649356 
2400	 0.672967865955704 
2401	 0.615643235388356 
2402	 0.413538328946081 
2403	 0.380464700661137 
2404	 0.438763306713146 
2405	 0.431418254597048 
2406	 0.452829106275493 
2407	 0.523521357437363 
2408	 0.553238408023015 
2409	 0.620820379539734 
2410	 0.753619252320592 
2411	 0.838925195258707 
2412	 0.990085136014447 
2413	 0.960210861067813 
2414	 0.865873365189408 
2415	 0.742232285847462 
2416	 0.396769690654794 
2417	 0.284404996022136 
2418	 0.205225315332301 
2419	 0.269424754357569 
2420	 0.628754761894767 
2421	 0.777545975789723 
2422	 1.02096727223802 
2423	 1.01936424656851 
2424	 0.713667640758564 
2425	 0.678288542369117 
2426	 0.683664923225305 
2427	 0.699972050554541 
2428	 0.77775466238058 
2429	 0.853107880941471 
2430	 0.992923310349632 
2431	 1.04913592147999 
2432	 1.06607023947776 
2433	 1.05362587479224 
2434	 0.954297751369422 
2435	 0.814195049730817 
2436	 0.638491008831536 
2437	 0.545500069340191 
2438	 0.453803153997187 
2439	 0.521623733940012 
2440	 0.687844802919758 
2441	 0.867313259431103 
2442	 1.26624177104938 
2443	 1.64842768187239 
2444	 2.13811967570756 
2445	 2.82470246457172 
2446	 8.40338998264192 
2447	 4.19717480866893 
2448	 1.36941932277803 
2449	 0.837943743593843 
2450	 0.336607666250205 
2451	 0.290220374245103 
2452	 0.491754537411912 
2453	 0.747945462461849 
2454	 1.15359414692676 
2455	 1.13012479399647 
2456	 0.926105118786378 
2457	 1.1172887339899 
2458	 1.17377739267877 
2459	 1.35184473248398 
2460	 1.64433975073602 
2461	 2.87925287694488 
2462	 3.17637863474301 
2463	 2.35095237889914 
2464	 1.9980545032317 
2465	 1.25256493436525 
2466	 0.914827515434799 
2467	 0.938601850562111 
2468	 0.867815187963003 
2469	 0.551669661375022 
2470	 0.458757931697516 
2471	 0.485002610770373 
2472	 0.429966433298674 
2473	 0.219233323229032 
2474	 0.299570769558989 
2475	 0.594593624354811 
2476	 0.735622193259854 
2477	 1.04952241838509 
2478	 1.13204600862698 
2479	 0.945859632417419 
2480	 0.942057732044877 
2481	 1.1038833254957 
2482	 1.1147557835374 
2483	 0.937489697592502 
2484	 1.09228658952335 
2485	 1.29467374928739 
2486	 1.58660825696057 
2487	 4.53525287146671 
2488	 12.7096428879705 
2489	-33.951944834285 
2490	 27.1162120076477 
2491	 3.21469787105187 
2492	 1.75924037008943 
2493	 0.874342501344118 
2494	 0.614473160272376 
2495	 0.485370771444227 
2496	 0.441472477801227 
2497	 0.384568293146133 
2498	 0.368710326113826 
2499	 0.639898809969302 
2500	 0.60832325383125 
