Wavelength	000001.asd
350	 0.289713645615425 
351	 0.288763613246239 
352	 0.287778173605569 
353	 0.287420368993526 
354	 0.287860223536578 
355	 0.288209236623873 
356	 0.288305978689037 
357	 0.288726277170911 
358	 0.289054500994412 
359	 0.28943108428875 
360	 0.289639356353913 
361	 0.28884888705552 
362	 0.287778401700819 
363	 0.286081700159761 
364	 0.283652287589865 
365	 0.281455463183317 
366	 0.279894707151959 
367	 0.278826412108242 
368	 0.278013330553814 
369	 0.27790167833091 
370	 0.278727978197739 
371	 0.28015374494664 
372	 0.281432766952769 
373	 0.282092651520776 
374	 0.282221979322784 
375	 0.281676325220556 
376	 0.279952410055453 
377	 0.278432057836394 
378	 0.277371747635874 
379	 0.276952920894853 
380	 0.277870243426839 
381	 0.279561291915785 
382	 0.281613004113666 
383	 0.283660317469408 
384	 0.285596164513492 
385	 0.286313509336021 
386	 0.285439881136295 
387	 0.283292194549868 
388	 0.280675327122723 
389	 0.278849906939058 
390	 0.278483988907965 
391	 0.279490350667525 
392	 0.281342226061744 
393	 0.28366306862087 
394	 0.285958728020804 
395	 0.287558208168853 
396	 0.287493628467523 
397	 0.285577944297672 
398	 0.282380972055725 
399	 0.279616626628893 
400	 0.277714147480158 
401	 0.276787397722946 
402	 0.276793806985431 
403	 0.27803039057237 
404	 0.279979920134925 
405	 0.281988969298109 
406	 0.283376217669002 
407	 0.284426379465993 
408	 0.285016169932421 
409	 0.285076964317321 
410	 0.28482302161401 
411	 0.284698478699605 
412	 0.284613519147946 
413	 0.28436223896156 
414	 0.284488948244789 
415	 0.284778304862824 
416	 0.285227648125232 
417	 0.286010848494418 
418	 0.286494889550479 
419	 0.28672483230617 
420	 0.286832759469154 
421	 0.286871326429725 
422	 0.286941071280102 
423	 0.286997142033603 
424	 0.286993527329053 
425	 0.287032218096626 
426	 0.287374809874858 
427	 0.288296256751087 
428	 0.289913848919653 
429	 0.291227855746622 
430	 0.291720912903314 
431	 0.29127494956799 
432	 0.290183754706396 
433	 0.288486295999972 
434	 0.286838526576217 
435	 0.285976271463574 
436	 0.286637340659687 
437	 0.287698448280113 
438	 0.28852680231921 
439	 0.288812799265634 
440	 0.288597322672841 
441	 0.287840478731702 
442	 0.286916827919143 
443	 0.286619190501127 
444	 0.287023394124124 
445	 0.28776706911595 
446	 0.288372881508674 
447	 0.288370175415152 
448	 0.287911171294634 
449	 0.287277999546944 
450	 0.286896435647963 
451	 0.287542151476389 
452	 0.288622743729947 
453	 0.289580436388775 
454	 0.290019494416984 
455	 0.289753731120388 
456	 0.289267350642414 
457	 0.289045294452583 
458	 0.289219918385601 
459	 0.289466401298125 
460	 0.289525684590994 
461	 0.289291840680504 
462	 0.289276218968076 
463	 0.28954513697822 
464	 0.290014091075954 
465	 0.290474354076019 
466	 0.290798212823074 
467	 0.290928533909064 
468	 0.290898866361234 
469	 0.290897197173605 
470	 0.290883609905664 
471	 0.290703187342169 
472	 0.29023963852611 
473	 0.289859385694206 
474	 0.289847087909054 
475	 0.290118366503282 
476	 0.290220178176534 
477	 0.290107805139007 
478	 0.289991057038337 
479	 0.290068556099284 
480	 0.290360058947747 
481	 0.290662256129077 
482	 0.291001365557221 
483	 0.291592711759874 
484	 0.293057971409029 
485	 0.294961456832648 
486	 0.296340694611206 
487	 0.295803467986034 
488	 0.293935079230981 
489	 0.292389470951665 
490	 0.292390039505185 
491	 0.293555904558054 
492	 0.294637395447895 
493	 0.295040417530812 
494	 0.294709600882618 
495	 0.294483160693708 
496	 0.294716538620018 
497	 0.295321221237004 
498	 0.295722758259423 
499	 0.295887445772938 
500	 0.29576965961347 
501	 0.295375778301151 
502	 0.294827608955316 
503	 0.293942380948064 
504	 0.292770646785608 
505	 0.29164110380904 
506	 0.291732976559681 
507	 0.292933719311371 
508	 0.294563085357671 
509	 0.295368313047003 
510	 0.296049621238405 
511	 0.296969387461075 
512	 0.298277573495392 
513	 0.299702659627195 
514	 0.300574621277544 
515	 0.30122379096371 
516	 0.302673747100549 
517	 0.304122692561896 
518	 0.304190038456006 
519	 0.302730286449782 
520	 0.301971437945833 
521	 0.30247004288797 
522	 0.303411765785861 
523	 0.303692103117593 
524	 0.30349824627613 
525	 0.304004991852624 
526	 0.305263592556542 
527	 0.306123408956292 
528	 0.305280210965345 
529	 0.304296004744804 
530	 0.304530686354881 
531	 0.305464179954091 
532	 0.306552772081196 
533	 0.307145778516157 
534	 0.306770830705058 
535	 0.306356222407763 
536	 0.306562539206655 
537	 0.307181976156265 
538	 0.30694842666521 
539	 0.306944818823748 
540	 0.306855493499501 
541	 0.306182273362229 
542	 0.305022558302343 
543	 0.304540881959297 
544	 0.304835760151315 
545	 0.305271547120025 
546	 0.305821830350479 
547	 0.306355617220101 
548	 0.306827731063178 
549	 0.307336796624196 
550	 0.308003252645377 
551	 0.308785192453199 
552	 0.309522315659725 
553	 0.309851981969097 
554	 0.309879669059497 
555	 0.309937740453949 
556	 0.31050554346361 
557	 0.310986969073558 
558	 0.311294903141454 
559	 0.311384001214419 
560	 0.310978625726222 
561	 0.310813212571578 
562	 0.310840447656428 
563	 0.31065891609633 
564	 0.310429088853317 
565	 0.310064065999337 
566	 0.309209896476371 
567	 0.307138716111003 
568	 0.305166466250356 
569	 0.303613742876146 
570	 0.302495440426406 
571	 0.301929794140502 
572	 0.300998736933724 
573	 0.29980289802731 
574	 0.299156828723337 
575	 0.298194466823243 
576	 0.296989235491595 
577	 0.29585442961253 
578	 0.295224287305222 
579	 0.295076812867153 
580	 0.295438514516533 
581	 0.296254277137587 
582	 0.2971841595435 
583	 0.297909720991451 
584	 0.297995448773938 
585	 0.296841911961034 
586	 0.293356702750444 
587	 0.288449453698832 
588	 0.283277470369852 
589	 0.278289373038114 
590	 0.274747557327227 
591	 0.274284261664627 
592	 0.277458456358265 
593	 0.280727836500017 
594	 0.283288622985753 
595	 0.285194824977851 
596	 0.287226172545115 
597	 0.289915373709569 
598	 0.292814780003116 
599	 0.295294720874925 
600	 0.297664195543792 
601	 0.299708951342959 
602	 0.301119899134693 
603	 0.301557704297155 
604	 0.301872164543351 
605	 0.302112212602301 
606	 0.302210059919114 
607	 0.302238388763785 
608	 0.30212461408087 
609	 0.301871916169442 
610	 0.301527606059413 
611	 0.301066750165041 
612	 0.300988640634769 
613	 0.301332361632834 
614	 0.301437592602734 
615	 0.301866644364727 
616	 0.302296144362513 
617	 0.302308148193525 
618	 0.302105986955774 
619	 0.301843436388673 
620	 0.301642687319256 
621	 0.301574757626882 
622	 0.301426795031039 
623	 0.301029223428314 
624	 0.300282146763688 
625	 0.2993012943421 
626	 0.297013582781984 
627	 0.294015764708998 
628	 0.291785437497516 
629	 0.292181171895213 
630	 0.293425369042905 
631	 0.294254360092193 
632	 0.294392388267746 
633	 0.295184580765656 
634	 0.296136816427262 
635	 0.296664414354433 
636	 0.297243191669801 
637	 0.29762557104181 
638	 0.297834763908897 
639	 0.298042194947877 
640	 0.298211969946566 
641	 0.298276757859784 
642	 0.298070263361438 
643	 0.297320504982125 
644	 0.295447654005458 
645	 0.29173049814559 
646	 0.285989838676668 
647	 0.280459133083157 
648	 0.279079691600922 
649	 0.281946396602363 
650	 0.285084814622672 
651	 0.285646389642187 
652	 0.285866660420336 
653	 0.287140850416914 
654	 0.28681551230707 
655	 0.286539478375053 
656	 0.287356512661756 
657	 0.289596062368427 
658	 0.291120622674355 
659	 0.292683134492167 
660	 0.294559108857244 
661	 0.296113407802111 
662	 0.29677083398144 
663	 0.2969496866238 
664	 0.297158632917409 
665	 0.29735317176627 
666	 0.29761261770865 
667	 0.297882320778702 
668	 0.29802721230592 
669	 0.298053078363975 
670	 0.297905031477817 
671	 0.29769756764292 
672	 0.297832627580878 
673	 0.297917797079412 
674	 0.297829735012325 
675	 0.29760875934774 
676	 0.297592563695619 
677	 0.297589435645232 
678	 0.297473025013334 
679	 0.297204029920094 
680	 0.297014705916777 
681	 0.296717470604348 
682	 0.296257076895278 
683	 0.296039443994915 
684	 0.295875903738575 
685	 0.293334337117715 
686	 0.286118553544971 
687	 0.280827909091532 
688	 0.279853350147862 
689	 0.282092240795759 
690	 0.282950763408089 
691	 0.28062745574498 
692	 0.275564517864641 
693	 0.269902965260721 
694	 0.269851320398056 
695	 0.27523264234028 
696	 0.281974139988695 
697	 0.285307392695335 
698	 0.282507623371061 
699	 0.277991942590452 
700	 0.275362926782284 
701	 0.276225694858298 
702	 0.280978321053619 
703	 0.285846209951132 
704	 0.28787119486476 
705	 0.287921981760247 
706	 0.288778410531037 
707	 0.29107730224695 
708	 0.293998101828979 
709	 0.295899406714468 
710	 0.297868683340724 
711	 0.300113103163971 
712	 0.301320691523663 
713	 0.300940337655508 
714	 0.29759433728953 
715	 0.289999359518737 
716	 0.276507330720605 
717	 0.262846137381984 
718	 0.254502055308897 
719	 0.25569492000326 
720	 0.268642234125168 
721	 0.279183164157992 
722	 0.281575160109865 
723	 0.275895178552998 
724	 0.271760015226344 
725	 0.271191676933623 
726	 0.272957384900881 
727	 0.2762089733327 
728	 0.278787723755907 
729	 0.280627698667142 
730	 0.283569216232877 
731	 0.292890277409437 
732	 0.304154072535369 
733	 0.312557764851898 
734	 0.315273927696108 
735	 0.31590037199905 
736	 0.31722765157691 
737	 0.320907748168352 
738	 0.325229102872568 
739	 0.330038402736669 
740	 0.334714431071156 
741	 0.33850918254706 
742	 0.341909631247825 
743	 0.344683882068729 
744	 0.346810303065783 
745	 0.348621230082286 
746	 0.349861845536998 
747	 0.350740614847858 
748	 0.351480453993346 
749	 0.351864647141814 
750	 0.352345859760675 
751	 0.352905831969372 
752	 0.353253270641102 
753	 0.353486201691421 
754	 0.353605433908089 
755	 0.353594577130562 
756	 0.353432195979474 
757	 0.349016375463951 
758	 0.339058310137067 
759	 0.322607436997362 
760	 0.314368828840751 
761	 0.310156765990113 
762	 0.309318415301947 
763	 0.311081443697863 
764	 0.32165365603411 
765	 0.333579911716355 
766	 0.342264128883742 
767	 0.347558137628808 
768	 0.350599235090827 
769	 0.352471475476256 
770	 0.353763946843235 
771	 0.354503429485783 
772	 0.3550614437588 
773	 0.355493475569019 
774	 0.355754092814992 
775	 0.355979368956786 
776	 0.356039274063362 
777	 0.355984057744027 
778	 0.3560106411552 
779	 0.355983106907724 
780	 0.355895158997696 
781	 0.355609428056283 
782	 0.354723026734795 
783	 0.353623364619778 
784	 0.351921145737068 
785	 0.349263762597222 
786	 0.346267386709363 
787	 0.343153410393676 
788	 0.34061076404438 
789	 0.339592849427912 
790	 0.340132000457896 
791	 0.341916344482114 
792	 0.343977029815791 
793	 0.344810396183595 
794	 0.343243282399246 
795	 0.341074632095277 
796	 0.339851793517618 
797	 0.33894614442517 
798	 0.337318497966182 
799	 0.335573902725533 
800	 0.334679111754089 
801	 0.333858080799433 
802	 0.334164539573615 
803	 0.335890146584938 
804	 0.33837160174356 
805	 0.339478916336195 
806	 0.338904105339016 
807	 0.336785199463523 
808	 0.333410061230506 
809	 0.32912301412997 
810	 0.32387422811632 
811	 0.317624329695871 
812	 0.310537333884758 
813	 0.304113915647497 
814	 0.299437866533455 
815	 0.297317903509406 
816	 0.297389678943697 
817	 0.300680893823637 
818	 0.305991738314521 
819	 0.310266086963149 
820	 0.30725377794914 
821	 0.304842870619306 
822	 0.308033458135624 
823	 0.316335924479875 
824	 0.316902311171331 
825	 0.312907348581855 
826	 0.31004858524974 
827	 0.3109845148249 
828	 0.312778998281654 
829	 0.314180829771491 
830	 0.315026512658608 
831	 0.317182136639049 
832	 0.320593852002418 
833	 0.324393997629416 
834	 0.32738765302787 
835	 0.329482636253133 
836	 0.331603005200756 
837	 0.333890607581339 
838	 0.335692645523689 
839	 0.337258209697582 
840	 0.338935694218962 
841	 0.34079119459903 
842	 0.34240882780488 
843	 0.344468658061511 
844	 0.346202370594585 
845	 0.346914363361539 
846	 0.347070056168107 
847	 0.34677306111425 
848	 0.346710261448287 
849	 0.347391598235557 
850	 0.347520183137736 
851	 0.346900866276336 
852	 0.346774921435658 
853	 0.348921119242846 
854	 0.352023615827487 
855	 0.353529799779635 
856	 0.352968501580152 
857	 0.352132834952059 
858	 0.352137565982139 
859	 0.352698144533086 
860	 0.353259123054543 
861	 0.35327893759862 
862	 0.352861440610504 
863	 0.352456885609898 
864	 0.352677416556253 
865	 0.354323452638797 
866	 0.356092778478844 
867	 0.356762226626145 
868	 0.355872833789055 
869	 0.355125361036798 
870	 0.354462784776282 
871	 0.35403002437504 
872	 0.353936515177582 
873	 0.353860320494116 
874	 0.353649493238664 
875	 0.353269385615478 
876	 0.352752213970507 
877	 0.351937449845571 
878	 0.35110597936991 
879	 0.350601632103863 
880	 0.350640710279499 
881	 0.350137196003279 
882	 0.349227171003808 
883	 0.348274269445708 
884	 0.347662949471344 
885	 0.347647877056601 
886	 0.347441521160399 
887	 0.346266233425165 
888	 0.343793545984392 
889	 0.339907600423975 
890	 0.335060073209055 
891	 0.329733814279972 
892	 0.324106510815644 
893	 0.318536670479479 
894	 0.313341213183699 
895	 0.308761255693147 
896	 0.30474178659655 
897	 0.301296963498184 
898	 0.29967115275291 
899	 0.30122711765602 
900	 0.305781595666878 
901	 0.30745025750566 
902	 0.304364885270462 
903	 0.297845925972342 
904	 0.291507991441831 
905	 0.289909426893066 
906	 0.292374997762742 
907	 0.294954484113291 
908	 0.293937092407674 
909	 0.289963803953596 
910	 0.28516369042266 
911	 0.282341913506735 
912	 0.282075100576783 
913	 0.284204583132864 
914	 0.287871676030269 
915	 0.291775735364508 
916	 0.295791431400084 
917	 0.297769710083454 
918	 0.296816702492833 
919	 0.293544978108298 
920	 0.290139189010708 
921	 0.288380273813687 
922	 0.287700655365624 
923	 0.285475828190931 
924	 0.280959005275164 
925	 0.273914263241373 
926	 0.26597215376562 
927	 0.261271678936142 
928	 0.259831068746934 
929	 0.259487936552027 
930	 0.258166691149188 
931	 0.256183199901289 
932	 0.258483069844489 
933	 0.265479696120617 
934	 0.273824856278619 
935	 0.278256522299554 
936	 0.266898643073487 
937	 0.256980595463715 
938	 0.253433118914083 
939	 0.244118177579606 
940	 0.239973393260965 
941	 0.23806832912368 
942	 0.238242299524654 
943	 0.244952583250417 
944	 0.244718839399489 
945	 0.242431975055087 
946	 0.243159966450775 
947	 0.246029180485335 
948	 0.244644112261863 
949	 0.242727504133077 
950	 0.241274865561542 
951	 0.237591044868005 
952	 0.241461076277406 
953	 0.246433508417542 
954	 0.248247317244746 
955	 0.247827123998079 
956	 0.248763325738091 
957	 0.249631303169746 
958	 0.251523274971117 
959	 0.256987354862542 
960	 0.260493358535388 
961	 0.267853031237974 
962	 0.275631345130129 
963	 0.276506445906589 
964	 0.281564023241036 
965	 0.285190388172403 
966	 0.285210313742268 
967	 0.282402475367993 
968	 0.277132698124665 
969	 0.274563679889972 
970	 0.275787240569251 
971	 0.279343263331181 
972	 0.284796243784314 
973	 0.289825888404328 
974	 0.29374488703058 
975	 0.296723783909822 
976	 0.298064805297024 
977	 0.299199749323421 
978	 0.301664578340566 
979	 0.305754447065136 
980	 0.308639976904606 
981	 0.31220246148605 
982	 0.315232308431155 
983	 0.316991284521683 
984	 0.320086856281574 
985	 0.322331256821945 
986	 0.324216720385859 
987	 0.32621852897032 
988	 0.327528079470077 
989	 0.329441265707151 
990	 0.331246363583502 
991	 0.332493969270891 
992	 0.333697824603978 
993	 0.334624832164159 
994	 0.33421257306759 
995	 0.333477803788183 
996	 0.334989143587604 
997	 0.334423577703292 
998	 0.335964867208412 
999	 0.338396698612559 
1000	 0.337026859608198 
1001	 0.364892352105185 
1002	 0.365173080130168 
1003	 0.364652735383979 
1004	 0.365016322212747 
1005	 0.364787805819182 
1006	 0.364862896275768 
1007	 0.366096613005628 
1008	 0.366274344459343 
1009	 0.365515155250229 
1010	 0.364801045065666 
1011	 0.365183908379341 
1012	 0.366704308905145 
1013	 0.36850763759227 
1014	 0.369535411878344 
1015	 0.369950124409987 
1016	 0.369728717213947 
1017	 0.369818635262971 
1018	 0.370072784480203 
1019	 0.369931062815997 
1020	 0.369131499166833 
1021	 0.368997352462315 
1022	 0.368897930733607 
1023	 0.368891706254296 
1024	 0.369010910346483 
1025	 0.37032632868064 
1026	 0.370653862485838 
1027	 0.369841295027632 
1028	 0.371057664087026 
1029	 0.371722634217694 
1030	 0.371760866118244 
1031	 0.373083560535765 
1032	 0.373064657606525 
1033	 0.37146392041911 
1034	 0.37088843062461 
1035	 0.370207179632839 
1036	 0.369821849794834 
1037	 0.36974747714775 
1038	 0.370013966575613 
1039	 0.36963547903429 
1040	 0.368964074742137 
1041	 0.367907527595511 
1042	 0.367206904849322 
1043	 0.367396250938808 
1044	 0.367277569504468 
1045	 0.367589777458262 
1046	 0.36749035429414 
1047	 0.366472445904989 
1048	 0.366459934736098 
1049	 0.366548014269689 
1050	 0.366976627720571 
1051	 0.366969443301801 
1052	 0.367341912594088 
1053	 0.367023391304229 
1054	 0.366178423250171 
1055	 0.365341314050685 
1056	 0.364062151403941 
1057	 0.36321632807696 
1058	 0.362377180487496 
1059	 0.36171477425141 
1060	 0.361952840661818 
1061	 0.36183695116606 
1062	 0.362165038277425 
1063	 0.362537852474135 
1064	 0.362294208848205 
1065	 0.361626734602016 
1066	 0.361282738820284 
1067	 0.360157609467126 
1068	 0.358997719357258 
1069	 0.358785170486386 
1070	 0.358336421799224 
1071	 0.358200149395906 
1072	 0.358759136585517 
1073	 0.3591705984333 
1074	 0.359937109718259 
1075	 0.360704165915922 
1076	 0.360368769295515 
1077	 0.359938726206261 
1078	 0.359333930399563 
1079	 0.359047825480627 
1080	 0.358839271159159 
1081	 0.359298049175484 
1082	 0.35889595164245 
1083	 0.358201809448536 
1084	 0.357454803117602 
1085	 0.356165831590974 
1086	 0.355074477346513 
1087	 0.354189997282361 
1088	 0.352243663674574 
1089	 0.350272600566899 
1090	 0.349612481085111 
1091	 0.348771301432278 
1092	 0.347928334793323 
1093	 0.347420981627288 
1094	 0.345558063666241 
1095	 0.343042402494371 
1096	 0.339459508261767 
1097	 0.33595399412431 
1098	 0.332041054965398 
1099	 0.328141872326896 
1100	 0.324463474407954 
1101	 0.320694307285089 
1102	 0.316555281786698 
1103	 0.311941886950649 
1104	 0.307188078070447 
1105	 0.302930241048827 
1106	 0.299595101669427 
1107	 0.296624400491093 
1108	 0.29324367821993 
1109	 0.288938517669866 
1110	 0.285093762020938 
1111	 0.279621687473842 
1112	 0.275807117961543 
1113	 0.273105165573687 
1114	 0.271639707113145 
1115	 0.270799779113665 
1116	 0.265869258177561 
1117	 0.257400233536577 
1118	 0.250998389078268 
1119	 0.239047378774215 
1120	 0.225150947742309 
1121	 0.220079116917806 
1122	 0.212939186113342 
1123	 0.205456298221552 
1124	 0.199814181696307 
1125	 0.196334605320629 
1126	 0.19214649963518 
1127	 0.190125017170244 
1128	 0.191883332872488 
1129	 0.198887650917388 
1130	 0.20843487348509 
1131	 0.216793094383777 
1132	 0.219932647517598 
1133	 0.21958661770483 
1134	 0.211494625148011 
1135	 0.203618515183756 
1136	 0.206582682603641 
1137	 0.209779355206354 
1138	 0.211977731226229 
1139	 0.213546697777193 
1140	 0.206898935950551 
1141	 0.207514487278122 
1142	 0.210315200681005 
1143	 0.217632321879863 
1144	 0.218958084873318 
1145	 0.222613646206231 
1146	 0.219468151262847 
1147	 0.205859175941668 
1148	 0.201759769081071 
1149	 0.200345451030869 
1150	 0.201367822477977 
1151	 0.200978845765476 
1152	 0.199135392958462 
1153	 0.197743737246472 
1154	 0.196407150270101 
1155	 0.200898342482947 
1156	 0.208179457687512 
1157	 0.215747745773226 
1158	 0.223252136665079 
1159	 0.230378022595325 
1160	 0.238170909282935 
1161	 0.243849196905346 
1162	 0.247762167085811 
1163	 0.253357652819687 
1164	 0.259656855000211 
1165	 0.264482880061762 
1166	 0.269703717359324 
1167	 0.273749481152604 
1168	 0.276506762000831 
1169	 0.279158849818956 
1170	 0.282341195634108 
1171	 0.285938607915117 
1172	 0.289661176573042 
1173	 0.292887539754142 
1174	 0.295147979211845 
1175	 0.2979966517422 
1176	 0.299609207894057 
1177	 0.30034889632773 
1178	 0.30094582219784 
1179	 0.300951938497867 
1180	 0.300609491489433 
1181	 0.300024451391828 
1182	 0.299593179288135 
1183	 0.298624236108601 
1184	 0.297727278810961 
1185	 0.297854372154849 
1186	 0.297182559799963 
1187	 0.297501084312644 
1188	 0.298859832328561 
1189	 0.301414023797949 
1190	 0.304011304533552 
1191	 0.306204035256943 
1192	 0.307776445617032 
1193	 0.308642414385672 
1194	 0.308164829036938 
1195	 0.308697767826437 
1196	 0.309166372413965 
1197	 0.310020019858497 
1198	 0.311764068810202 
1199	 0.312537722548195 
1200	 0.312956123569416 
1201	 0.313259017211664 
1202	 0.312773024482101 
1203	 0.312623667883675 
1204	 0.313652324319214 
1205	 0.314848385835605 
1206	 0.317017281405313 
1207	 0.319396615034938 
1208	 0.320853349652891 
1209	 0.322602589075742 
1210	 0.323471009488881 
1211	 0.323392829182839 
1212	 0.324062401830855 
1213	 0.324036670452023 
1214	 0.325070718684561 
1215	 0.327022050138152 
1216	 0.328721001782422 
1217	 0.330459106444815 
1218	 0.332735524814042 
1219	 0.335565515390987 
1220	 0.33776101258891 
1221	 0.340072671917174 
1222	 0.34241254041584 
1223	 0.343851917823544 
1224	 0.345195536055173 
1225	 0.346638982019745 
1226	 0.348076471237547 
1227	 0.349480824424356 
1228	 0.350861876952477 
1229	 0.352482282889514 
1230	 0.354121350612731 
1231	 0.35578208754716 
1232	 0.357943804809137 
1233	 0.359407056762068 
1234	 0.360365836101368 
1235	 0.361792794723045 
1236	 0.363197485443171 
1237	 0.364455211688038 
1238	 0.366057992210402 
1239	 0.367319212827338 
1240	 0.368372919360689 
1241	 0.36919468864781 
1242	 0.369803726588771 
1243	 0.370384352108103 
1244	 0.370992059974743 
1245	 0.371277113664794 
1246	 0.371438942144566 
1247	 0.371631959471515 
1248	 0.371439651211506 
1249	 0.370726803159563 
1250	 0.370192685911916 
1251	 0.369381746129914 
1252	 0.369028524020859 
1253	 0.369087097141094 
1254	 0.368580992077409 
1255	 0.36851850019771 
1256	 0.367418106128578 
1257	 0.365062498184244 
1258	 0.363112290878146 
1259	 0.36077613810768 
1260	 0.358493614453514 
1261	 0.356089053467816 
1262	 0.353951834514351 
1263	 0.351862124390258 
1264	 0.349483282411623 
1265	 0.347771763807965 
1266	 0.346557135803331 
1267	 0.345491914056571 
1268	 0.345070870293673 
1269	 0.34495928954118 
1270	 0.345438595866052 
1271	 0.345729393015388 
1272	 0.345952066990684 
1273	 0.347048213258004 
1274	 0.34868753297499 
1275	 0.350077944884878 
1276	 0.352345737674706 
1277	 0.353673067281817 
1278	 0.354298095502108 
1279	 0.35527965701624 
1280	 0.356415815833813 
1281	 0.357132465101187 
1282	 0.357668356911758 
1283	 0.358118934347997 
1284	 0.358171740436935 
1285	 0.358408715813376 
1286	 0.358521366158251 
1287	 0.35818140650904 
1288	 0.357387660670445 
1289	 0.356824239229405 
1290	 0.355919108914391 
1291	 0.354882698237707 
1292	 0.353721560099446 
1293	 0.352318478245949 
1294	 0.35052081211608 
1295	 0.348143159570866 
1296	 0.346417014437469 
1297	 0.344689162313678 
1298	 0.342880872379736 
1299	 0.341655538488627 
1300	 0.339917231233144 
1301	 0.337085001619773 
1302	 0.335302508705958 
1303	 0.334634428511902 
1304	 0.332884310649455 
1305	 0.331234309644516 
1306	 0.329088990939977 
1307	 0.32575960819579 
1308	 0.322352335465794 
1309	 0.319266237311105 
1310	 0.316072596947152 
1311	 0.312084647446021 
1312	 0.307735170097862 
1313	 0.304106751781727 
1314	 0.300165982077638 
1315	 0.29712330419794 
1316	 0.295881168839218 
1317	 0.292956191863845 
1318	 0.289391979943276 
1319	 0.28663137127145 
1320	 0.283520527183043 
1321	 0.280759954885668 
1322	 0.279225967237176 
1323	 0.276629860261076 
1324	 0.272635291982955 
1325	 0.269791880839312 
1326	 0.268141163425317 
1327	 0.264658468179049 
1328	 0.26039605557717 
1329	 0.255307786148034 
1330	 0.246370428021987 
1331	 0.237943908327638 
1332	 0.230327571807874 
1333	 0.222067388824377 
1334	 0.214440417410876 
1335	 0.210163400509234 
1336	 0.207543306410672 
1337	 0.20953745202885 
1338	 0.208428519522397 
1339	 0.208745536941971 
1340	 0.207866490713632 
1341	 0.204144705627236 
1342	 0.203900462603356 
1343	 0.206861090110581 
1344	 0.207718763662619 
1345	 0.209322846411023 
1346	 0.212563334426195 
1347	 0.220201316104377 
1348	 0.223149070458926 
1349	 0.223735817844804 
1350	 0.225524165432472 
1351	 0.180062295732948 
1352	 0.148339151133281 
1353	 0.18725149937049 
1354	 0.234087876894288 
1355	 0.436455759039936 
1356	 0.52048875154862 
1357	 0.336618023620394 
1358	 0.310752720383458 
1359	 0.259046970697349 
1360	 0.145868222132334 
1361	 6.22208690313573E-02 
1362	 0.669091252434271 
1363	 1.03732258543705 
1364	 0.795766242451746 
1365	 0.870045132425307 
1366	 1.10502585868587 
1367	 1.17483608869559 
1368	-2.20752776209051 
1369	 1.28462681160445 
1370	 0.341788531852282 
1371	 0.464281354596263 
1372	 0.720915387777066 
1373	 0.733484376203061 
1374	 0.744125078241477 
1375	 0.800639245053761 
1376	 0.979796771794734 
1377	 0.899680909139607 
1378	 0.879454137573202 
1379	 0.64118041279172 
1380	 0.122255699981164 
1381	 0.150623719695762 
1382	 0.488884717393611 
1383	 0.686153002141755 
1384	 2.12910255737961 
1385	 4.01234020276023 
1386	 2.92055223878384 
1387	 1.75317870568395 
1388	 0.859169935481997 
1389	 0.476766777577892 
1390	 0.378185414230796 
1391	 0.194762237030924 
1392	 9.99907784417385E-02 
1393	-0.807958550097525 
1394	-1.13121086799548 
1395	 3.34543584993623 
1396	 1.60379967839971 
1397	 0.79206051947808 
1398	 0.742787834119373 
1399	 0.603932766796528 
1400	 0.651536107899244 
1401	 1.41817835540631 
1402	 1.81958889989768 
1403	 1.99471516066915 
1404	 3.02060046319976 
1405	 1.91962508527826 
1406	 1.45593344481898 
1407	 1.59425819526024 
1408	 1.28843663484915 
1409	 0.484498634931925 
1410	 0.407152801717943 
1411	 0.507946771228672 
1412	 0.591184406386138 
1413	 0.84933933080108 
1414	 1.07693597878538 
1415	 2.73179766679275 
1416	 6.13815085413457 
1417	 22.5443791748908 
1418	-6.56540274032951 
1419	 2.43965681330181 
1420	 0.244771831407752 
1421	 2.28735419174218E-02 
1422	 0.344955640557052 
1423	 0.159037458908228 
1424	 2.66832112895683E-03 
1425	 2.70152961930307E-04 
1426	-9.84344262109174E-02 
1427	-4.64949911813905E-02 
1428	 0.186003082399148 
1429	 0.301431490436042 
1430	 0.410389361446499 
1431	 0.473196206199812 
1432	 0.554406488851819 
1433	 0.538970426740332 
1434	 0.32129716197137 
1435	 0.379023403457674 
1436	 0.506921669124241 
1437	 0.626590395734736 
1438	 1.07648798099937 
1439	 1.12986793821821 
1440	 0.932178698999386 
1441	 0.84005906828474 
1442	 0.616595773707539 
1443	 0.484627112899569 
1444	 0.451347132484194 
1445	 0.368317156697889 
1446	 0.273662512556511 
1447	 0.235289345212849 
1448	 0.212199452173104 
1449	 0.204598765337702 
1450	 0.192256855787998 
1451	 0.212673323970245 
1452	 0.274608980342582 
1453	 0.293269106667323 
1454	 0.318962292317029 
1455	 0.323084262251941 
1456	 0.330269021539478 
1457	 0.290233403666128 
1458	 0.255896850850768 
1459	 0.20336949225305 
1460	 0.192332498433713 
1461	 0.168034915871362 
1462	 0.188052515445824 
1463	 0.275084522327671 
1464	 0.315651159527931 
1465	 0.372756723566201 
1466	 0.3850045411356 
1467	 0.343443710068197 
1468	 0.33850742258483 
1469	 0.333363121795894 
1470	 0.307273413833442 
1471	 0.27277474159603 
1472	 0.265349306169911 
1473	 0.25359329816498 
1474	 0.239682477864502 
1475	 0.263935697368726 
1476	 0.246056345183657 
1477	 0.188819190039922 
1478	 0.158996924060163 
1479	 0.124334058416542 
1480	 0.120840186629608 
1481	 0.134063492941586 
1482	 0.144149356148235 
1483	 0.166078571443222 
1484	 0.181610312787591 
1485	 0.182533109000844 
1486	 0.19855279935033 
1487	 0.223434169520935 
1488	 0.237862925111846 
1489	 0.251267352798412 
1490	 0.263198563727456 
1491	 0.26820503710341 
1492	 0.276116681620059 
1493	 0.284462128575645 
1494	 0.293724397605652 
1495	 0.301480527234313 
1496	 0.311451667224586 
1497	 0.324640220104957 
1498	 0.335474147860791 
1499	 0.345993122989226 
1500	 0.35834596653588 
1501	 0.364730016754161 
1502	 0.367803549067679 
1503	 0.369373236047831 
1504	 0.370738656341129 
1505	 0.373489557881082 
1506	 0.37642539994608 
1507	 0.381031305104688 
1508	 0.385577787731797 
1509	 0.391968161202059 
1510	 0.400887236467148 
1511	 0.406888210816047 
1512	 0.413726839927458 
1513	 0.417711251100912 
1514	 0.419402573006099 
1515	 0.422226509666155 
1516	 0.424175842225619 
1517	 0.426778988658732 
1518	 0.429580175384896 
1519	 0.432580051293609 
1520	 0.4365967524616 
1521	 0.438112175500421 
1522	 0.438540613576393 
1523	 0.439799951494552 
1524	 0.439555822973538 
1525	 0.44109470831367 
1526	 0.445171466366963 
1527	 0.446449999879732 
1528	 0.445880046045786 
1529	 0.44693321874147 
1530	 0.447625642668153 
1531	 0.448860534717643 
1532	 0.451412813985724 
1533	 0.45352432845947 
1534	 0.455481847114811 
1535	 0.456999756186616 
1536	 0.45979453325376 
1537	 0.460074501072364 
1538	 0.458243164946278 
1539	 0.457072626269742 
1540	 0.453896255411846 
1541	 0.452999481524367 
1542	 0.453832757483079 
1543	 0.45392320827925 
1544	 0.454607812383965 
1545	 0.45503954961942 
1546	 0.454435498158644 
1547	 0.455105708451167 
1548	 0.457080108697211 
1549	 0.458253279078467 
1550	 0.459928093039961 
1551	 0.461001754634041 
1552	 0.46167682673199 
1553	 0.461721490875272 
1554	 0.461371006242164 
1555	 0.460606462920215 
1556	 0.458666484087058 
1557	 0.457294222407232 
1558	 0.456206057986346 
1559	 0.454766524512844 
1560	 0.452901717333593 
1561	 0.451780344974469 
1562	 0.451336002850783 
1563	 0.449880750225415 
1564	 0.449517185975854 
1565	 0.447735103708639 
1566	 0.445657594084342 
1567	 0.442703376305014 
1568	 0.438780381382013 
1569	 0.437192485287906 
1570	 0.433902651545599 
1571	 0.430736424837751 
1572	 0.43019043093633 
1573	 0.427562613421276 
1574	 0.426001937895528 
1575	 0.426100487404887 
1576	 0.424617352861088 
1577	 0.423508537230084 
1578	 0.422370820444455 
1579	 0.421747919205338 
1580	 0.423119384939608 
1581	 0.423923427283637 
1582	 0.424537860214287 
1583	 0.425805020531937 
1584	 0.426606682200099 
1585	 0.427236452004778 
1586	 0.427288470185055 
1587	 0.427385648508575 
1588	 0.427200013169374 
1589	 0.425954720976698 
1590	 0.426047648967592 
1591	 0.427538239457722 
1592	 0.42703595415465 
1593	 0.426227053972593 
1594	 0.424349013863907 
1595	 0.420533111998549 
1596	 0.418326831458781 
1597	 0.416144743929492 
1598	 0.41440361140116 
1599	 0.413390444562778 
1600	 0.41213255470675 
1601	 0.410602762117663 
1602	 0.410068638498335 
1603	 0.410031443256495 
1604	 0.410070135236398 
1605	 0.41078715224888 
1606	 0.411464192604122 
1607	 0.41271025396452 
1608	 0.412871949644626 
1609	 0.412587553935351 
1610	 0.412559986947582 
1611	 0.411158735960173 
1612	 0.411649264403043 
1613	 0.413843163369029 
1614	 0.415002267619037 
1615	 0.416529068568973 
1616	 0.417444853185292 
1617	 0.417987257154666 
1618	 0.417905275948586 
1619	 0.417398824437233 
1620	 0.416912518748393 
1621	 0.415233745670056 
1622	 0.415317431575726 
1623	 0.416446622569756 
1624	 0.417061980460213 
1625	 0.418808252613097 
1626	 0.418951246776879 
1627	 0.418089778769372 
1628	 0.417313307428756 
1629	 0.415956321340181 
1630	 0.414519911283306 
1631	 0.412842155318187 
1632	 0.411202327562762 
1633	 0.409141941564781 
1634	 0.40760649403357 
1635	 0.406293323076657 
1636	 0.405021191902799 
1637	 0.403698558326636 
1638	 0.403194487589706 
1639	 0.402965265058597 
1640	 0.403165090294387 
1641	 0.404562799471784 
1642	 0.40456590578044 
1643	 0.404299112166852 
1644	 0.40382129371178 
1645	 0.402900730521404 
1646	 0.402145986290726 
1647	 0.400935400566604 
1648	 0.40024914603114 
1649	 0.399505276639155 
1650	 0.399010037474299 
1651	 0.399366794694074 
1652	 0.399065654527129 
1653	 0.398560821140796 
1654	 0.397478974300098 
1655	 0.395917289848108 
1656	 0.394760085234016 
1657	 0.393354456213285 
1658	 0.392287694094642 
1659	 0.391150284938492 
1660	 0.390429069716983 
1661	 0.389912001963259 
1662	 0.389527672272354 
1663	 0.390584104100423 
1664	 0.390503363202866 
1665	 0.390417329960122 
1666	 0.389876310368962 
1667	 0.387818412589921 
1668	 0.389003719996539 
1669	 0.390550909137612 
1670	 0.390775735819946 
1671	 0.392777959024056 
1672	 0.392276630693644 
1673	 0.390419635236534 
1674	 0.390975070347006 
1675	 0.390305327452075 
1676	 0.389844925651887 
1677	 0.390117827613296 
1678	 0.389508456505318 
1679	 0.389533375669861 
1680	 0.389764663787148 
1681	 0.389439855723771 
1682	 0.387529112495733 
1683	 0.386093944531836 
1684	 0.384990246724477 
1685	 0.382521870705091 
1686	 0.381005230596984 
1687	 0.380294194159562 
1688	 0.378629482086189 
1689	 0.37811126070986 
1690	 0.37898566888773 
1691	 0.379227288960957 
1692	 0.379403120968043 
1693	 0.378117302787701 
1694	 0.376504741729139 
1695	 0.37628517877942 
1696	 0.376255771501684 
1697	 0.377096618462028 
1698	 0.377392538681965 
1699	 0.374884498400065 
1700	 0.372213405215625 
1701	 0.37056492530886 
1702	 0.368167684214931 
1703	 0.366566017610326 
1704	 0.366032662631238 
1705	 0.364612931083851 
1706	 0.362718466624691 
1707	 0.36297035813254 
1708	 0.363793325083775 
1709	 0.36197593092411 
1710	 0.362185803756528 
1711	 0.363892502877765 
1712	 0.362687156034477 
1713	 0.363300813672307 
1714	 0.363354123084513 
1715	 0.359980985044312 
1716	 0.358924718546189 
1717	 0.357938995372342 
1718	 0.35658105225051 
1719	 0.357057264441399 
1720	 0.355454882364367 
1721	 0.35368309965407 
1722	 0.352235869628221 
1723	 0.350009800258932 
1724	 0.345540326973907 
1725	 0.343828554859406 
1726	 0.344132744495052 
1727	 0.343603326315293 
1728	 0.345093260486329 
1729	 0.34404532814499 
1730	 0.340551740322447 
1731	 0.337521319625155 
1732	 0.333580140873745 
1733	 0.330741780142193 
1734	 0.328101366773303 
1735	 0.326842699132755 
1736	 0.326250448114012 
1737	 0.325688504856599 
1738	 0.326120664777892 
1739	 0.325173302872635 
1740	 0.324957795061319 
1741	 0.319989815047226 
1742	 0.317684175673033 
1743	 0.316635721947038 
1744	 0.312400477023273 
1745	 0.309923721370076 
1746	 0.30823199149302 
1747	 0.304792278032836 
1748	 0.301803486662883 
1749	 0.302244802245615 
1750	 0.302894404048596 
1751	 0.300329504628641 
1752	 0.299674827967433 
1753	 0.298067901898022 
1754	 0.294245561823524 
1755	 0.295021123952496 
1756	 0.294265825329626 
1757	 0.293803575656219 
1758	 0.296042386620113 
1759	 0.293685891813961 
1760	 0.291569419348955 
1761	 0.288964510855114 
1762	 0.281707030322961 
1763	 0.275920704186026 
1764	 0.272873288480982 
1765	 0.264617159810516 
1766	 0.259596215397869 
1767	 0.258765316744002 
1768	 0.254203388070213 
1769	 0.254628150755969 
1770	 0.259566180040347 
1771	 0.262451378096036 
1772	 0.248117939861032 
1773	 0.231374449843546 
1774	 0.219663690007373 
1775	 0.198539760919637 
1776	 0.199357027376115 
1777	 0.215182783459837 
1778	 0.213581707802657 
1779	 0.205734618650798 
1780	 0.207181231822705 
1781	 0.203926733652411 
1782	 0.202914807916399 
1783	 0.20233726203633 
1784	 0.197757169682476 
1785	 0.185204727345394 
1786	 0.177112349282579 
1787	 0.167525379253377 
1788	 0.141133223606891 
1789	 0.124344844841607 
1790	 0.123818379980946 
1791	 0.134133644396035 
1792	 0.141448499382658 
1793	 0.149237802932946 
1794	 0.152929001427789 
1795	 0.146516573573302 
1796	 0.150840796603551 
1797	 0.128969352234018 
1798	 9.85880370814606E-02 
1799	 8.70487091489492E-02 
1800	 0.124820440701912 
1801	 0.371974083280644 
1802	 0.427183533621375 
1803	 0.371099316094518 
1804	 0.383767702383639 
1805	 0.746106476572674 
1806	 0.844277138522308 
1807	 0.669201949073391 
1808	 0.149132364260478 
1809	 2.62740662950175E-02 
1810	-0.258678467969381 
1811	-0.278300950521039 
1812	 0.374470516714436 
1813	 0.520615365114967 
1814	-0.122231532344548 
1815	-0.343891772526657 
1816	-0.735132933574322 
1817	-2.147857850761 
1818	 4.84846778089848 
1819	 2.80905452233737 
1820	 2.09020028223559 
1821	 1.62062346512521 
1822	 0.743980841627826 
1823	-0.967383805538711 
1824	-1.59273005125463 
1825	-2.46903732691101 
1826	-0.521140838811771 
1827	-0.364129511187501 
1828	 0.424787612429169 
1829	 0.900364536930568 
1830	-0.952340525636507 
1831	 1.4119024264309 
1832	 3.2906119106188 
1833	 2.94191630499034 
1834	 3.36799627247005 
1835	 3.29956882903136 
1836	 2.83941436250138 
1837	 1.71902545427079 
1838	 1.3340734359574 
1839	 0.983283539412447 
1840	 0.833410254358861 
1841	 0.59292160289759 
1842	 0.478742743042294 
1843	 1.34567202522126 
1844	 2.44622365393264 
1845	-3.65222185143674 
1846	 0.499642589760542 
1847	-0.58894599059593 
1848	 0.038056560741496 
1849	-8.36900319896381E-02 
1850	-0.456115652597107 
1851	-0.397900576673923 
1852	-0.35601103137278 
1853	-9.08925717406146E-02 
1854	 1.34130679228407 
1855	 1.89678863743972 
1856	 2.01836187360784 
1857	 1.2236977596458 
1858	 1.15854366035902 
1859	 0.872426823154853 
1860	 0.984600496839104 
1861	 1.8879361018104 
1862	 2.97483365500385 
1863	-38.8064819388354 
1864	-12.6698194074796 
1865	 7.97398871442519 
1866	 5.40794742556181 
1867	 3.63756436907839 
1868	 1.20908501263024 
1869	 1.37454209164206 
1870	 2.339622730538 
1871	 4.1098714028886 
1872	-2.72628422201509 
1873	-2.50237950375073 
1874	-1.90919751836739 
1875	-2.5757953814247 
1876	 3.07429156281047 
1877	 1.89542020721243 
1878	 1.57896766042497 
1879	 1.54931704101259 
1880	 1.57184018375478 
1881	 1.58105146015023 
1882	 0.781514832430202 
1883	 1.23030433976841 
1884	 2.42128238290555 
1885	 9.36554976749727 
1886	 54.7546939303985 
1887	-3.07032212992406 
1888	-1.27808157180067 
1889	-2.09701234005795 
1890	 1.34189751808324 
1891	 0.791077770389484 
1892	 0.550535856712012 
1893	 0.559794546205558 
1894	 0.96774386322738 
1895	 1.20464861122861 
1896	 1.20658318287404 
1897	 1.28406826958337 
1898	 1.2268009067497 
1899	 1.38172541034023 
1900	 1.51936575514617 
1901	 1.73198580004325 
1902	 1.96669501782369 
1903	 3.33358093809538 
1904	 4.37648797968835 
1905	 4.62503249426351 
1906	 4.7881612841226 
1907	 4.21508988470285 
1908	 2.14551453280863 
1909	 1.36496596775882 
1910	 0.976672493866865 
1911	 0.768593612130937 
1912	 0.530523598061964 
1913	 0.475090670416028 
1914	 0.68999875106293 
1915	 0.751275696893777 
1916	 0.905447126900988 
1917	 0.899611219369575 
1918	 0.790641778949708 
1919	 0.700017012726279 
1920	 0.488556990687993 
1921	 0.249403991154644 
1922	 0.157619615292071 
1923	 5.52129364423765E-02 
1924	-2.01406531397925E-02 
1925	-5.63586357236217E-02 
1926	-0.049830141503351 
1927	-0.13944241993586 
1928	-9.02258151550478E-02 
1929	 0.384741917342971 
1930	 1.32171529879291 
1931	 5.17953496307656 
1932	-51.714934651003 
1933	 7.1779072167674 
1934	 2.21553022013623 
1935	 1.52563744706097 
1936	 0.806264875084704 
1937	 0.650409895557923 
1938	 0.632680659033502 
1939	 0.594274589190297 
1940	 0.561777611987701 
1941	 0.528944989473661 
1942	 0.46208403389042 
1943	 0.10340130257184 
1944	 0.351840066379837 
1945	 0.467571670191966 
1946	 0.445853753157479 
1947	 0.593079159685199 
1948	 0.507374604547301 
1949	-0.118656750188187 
1950	-0.255414975769761 
1951	-0.143183240196016 
1952	-8.89568742943908E-02 
1953	 0.128381898468777 
1954	 0.476995243165962 
1955	 0.430834939774691 
1956	 0.312250134737978 
1957	 0.808990752986511 
1958	-36.8200225398088 
1959	-2.37499870605763 
1960	-1.49664577844663 
1961	-2.0631806271407 
1962	 1.05280981412094 
1963	 0.529035246561648 
1964	 0.344933658117729 
1965	 0.23775362879202 
1966	 0.335970428631446 
1967	 0.569960969343987 
1968	 0.557067964851679 
1969	 0.556785245205754 
1970	 0.512211051714304 
1971	 0.378538072895894 
1972	 0.282748646970217 
1973	 0.236084704473715 
1974	 0.195941173815743 
1975	 0.120720649188665 
1976	 0.138406296771238 
1977	 0.164941757566631 
1978	 0.348905331984349 
1979	 1.1146170316757 
1980	 1.43013303320266 
1981	 1.07806714406839 
1982	 0.851986206977969 
1983	 0.703817214326155 
1984	 0.520434367707264 
1985	 0.451947414682357 
1986	 0.363369416015531 
1987	 0.336434172203767 
1988	 0.346572842804871 
1989	 0.311942964600215 
1990	 0.316943740678326 
1991	 0.347056079010001 
1992	 0.32604050639985 
1993	 0.295565828890972 
1994	 0.300982010292973 
1995	 0.362406150169771 
1996	 0.398599689126341 
1997	 0.471437935568651 
1998	 0.491945247981678 
1999	 0.482394633634359 
2000	 0.43852300600114 
2001	 0.257598798624848 
2002	 0.167295699037784 
2003	 0.267158837133202 
2004	 5.66905889176506E-02 
2005	 0.212287517456286 
2006	 0.613707333080297 
2007	 0.334165456639135 
2008	 0.438311509779396 
2009	 0.487567438667071 
2010	 0.436627572105868 
2011	 0.44537914976816 
2012	 0.521032824529452 
2013	 0.571766071856625 
2014	 0.63105112326274 
2015	 0.680447477502764 
2016	 0.614835615211545 
2017	 0.717350741691775 
2018	 0.734959659558493 
2019	 0.655544028237365 
2020	 0.70670561595068 
2021	 0.657258998338399 
2022	 0.599549945261625 
2023	 0.607913779698695 
2024	 0.576198534157468 
2025	 0.509941079526877 
2026	 0.507836767935191 
2027	 0.520799704189388 
2028	 0.520994694318802 
2029	 0.583654451809729 
2030	 0.6691854929182 
2031	 0.642662584644284 
2032	 0.623251188451166 
2033	 0.583415185766398 
2034	 0.484392167305303 
2035	 0.467172177427224 
2036	 0.454772425431963 
2037	 0.439222681188353 
2038	 0.435045439659306 
2039	 0.453925810598229 
2040	 0.492688708456052 
2041	 0.493472696145731 
2042	 0.505749718230552 
2043	 0.484227966469782 
2044	 0.421787755317233 
2045	 0.40485001217259 
2046	 0.41688907012571 
2047	 0.4368804995568 
2048	 0.461470728346107 
2049	 0.480383092637016 
2050	 0.537738864087654 
2051	 0.595269527271535 
2052	 0.62267722108481 
2053	 0.646793436820353 
2054	 0.651587200709004 
2055	 0.600243056575098 
2056	 0.55386649131478 
2057	 0.583571642314758 
2058	 0.625673427982537 
2059	 0.586535594228079 
2060	 0.55444532595106 
2061	 0.496929943592716 
2062	 0.407688624210871 
2063	 0.441732422710457 
2064	 0.484778413900785 
2065	 0.496288419257818 
2066	 0.541070763018933 
2067	 0.546437003285574 
2068	 0.498982855893476 
2069	 0.477833120623157 
2070	 0.464708254578075 
2071	 0.433985509997521 
2072	 0.402136264938327 
2073	 0.400959536200737 
2074	 0.413986028567281 
2075	 0.44172642506894 
2076	 0.484762751092962 
2077	 0.504549851381521 
2078	 0.491085421286436 
2079	 0.47681967629503 
2080	 0.46228074037769 
2081	 0.475287525072598 
2082	 0.477959142409363 
2083	 0.492058599612298 
2084	 0.490502146766136 
2085	 0.48344359327357 
2086	 0.457952526249462 
2087	 0.461279147268685 
2088	 0.475624038480182 
2089	 0.480850062633145 
2090	 0.488031977024508 
2091	 0.474341622438297 
2092	 0.466999557207691 
2093	 0.474011324232185 
2094	 0.495694530980869 
2095	 0.515130751848435 
2096	 0.51948769759267 
2097	 0.510651247394171 
2098	 0.48702526780474 
2099	 0.483629996193006 
2100	 0.488491788030838 
2101	 0.493759535230662 
2102	 0.519107113954647 
2103	 0.52089142399213 
2104	 0.498177804655463 
2105	 0.478162097578581 
2106	 0.447827495709434 
2107	 0.453417811259337 
2108	 0.464771917650683 
2109	 0.453948879071128 
2110	 0.453617089204568 
2111	 0.437663205789462 
2112	 0.422391147942699 
2113	 0.431609046055954 
2114	 0.436899494586464 
2115	 0.446659278428234 
2116	 0.446641801539371 
2117	 0.452064242628139 
2118	 0.44525814332742 
2119	 0.421016788000693 
2120	 0.411319011744185 
2121	 0.40909863194743 
2122	 0.406574930636457 
2123	 0.40071786175198 
2124	 0.389888571006717 
2125	 0.384002742219383 
2126	 0.376496168629563 
2127	 0.393514584623164 
2128	 0.421970440562595 
2129	 0.43308706598369 
2130	 0.442007010609344 
2131	 0.434561212394728 
2132	 0.428957396294489 
2133	 0.42291631124181 
2134	 0.410710740800276 
2135	 0.401914592234386 
2136	 0.393953232434646 
2137	 0.390134318268799 
2138	 0.385237182495939 
2139	 0.411736890069687 
2140	 0.432846561860309 
2141	 0.433554332962874 
2142	 0.444748747283537 
2143	 0.441769176530852 
2144	 0.431867107279083 
2145	 0.439915942465905 
2146	 0.43318391907643 
2147	 0.435589023395808 
2148	 0.442488150908667 
2149	 0.430876309799849 
2150	 0.42540187298351 
2151	 0.416727355718792 
2152	 0.411578600071052 
2153	 0.409137155005495 
2154	 0.410585974669236 
2155	 0.415627635612342 
2156	 0.42586946200517 
2157	 0.421628321090062 
2158	 0.411286509474988 
2159	 0.414143794865934 
2160	 0.40752641040085 
2161	 0.401797711118308 
2162	 0.394805983008019 
2163	 0.379967088676964 
2164	 0.352649700025395 
2165	 0.343401186546601 
2166	 0.361122123683372 
2167	 0.362590916161845 
2168	 0.372671376412714 
2169	 0.374001574201773 
2170	 0.367012833772413 
2171	 0.360611399342934 
2172	 0.347682045528171 
2173	 0.341292382896024 
2174	 0.333183922769876 
2175	 0.32620519064765 
2176	 0.320893782115803 
2177	 0.336762381305402 
2178	 0.327831467330199 
2179	 0.336668092258858 
2180	 0.358126127434797 
2181	 0.362012017336812 
2182	 0.38468520687955 
2183	 0.388876053432792 
2184	 0.382172716453292 
2185	 0.383716898209839 
2186	 0.363774605055791 
2187	 0.369252115266877 
2188	 0.36260454566805 
2189	 0.340200694872648 
2190	 0.353382487899631 
2191	 0.359935752757356 
2192	 0.362878219878013 
2193	 0.37729405417383 
2194	 0.395267203702828 
2195	 0.413820688751315 
2196	 0.411409591803742 
2197	 0.415878541522316 
2198	 0.383750248733975 
2199	 0.334229749788555 
2200	 0.312109091589642 
2201	 0.319117780953525 
2202	 0.351471419282402 
2203	 0.36966804639839 
2204	 0.362934585554964 
2205	 0.349985319179504 
2206	 0.341976412086337 
2207	 0.332862796928099 
2208	 0.32874659393762 
2209	 0.328476034347004 
2210	 0.333003848419111 
2211	 0.340233623009513 
2212	 0.368274022995913 
2213	 0.404105070391196 
2214	 0.406983767390191 
2215	 0.404588026852591 
2216	 0.394297573427274 
2217	 0.380218153310571 
2218	 0.348227905943222 
2219	 0.329208443638031 
2220	 0.304426510815014 
2221	 0.293543780857444 
2222	 0.288105426691104 
2223	 0.297249441122759 
2224	 0.309224186823225 
2225	 0.319870190867146 
2226	 0.314078901125759 
2227	 0.307252926568166 
2228	 0.301402119346458 
2229	 0.303296153664131 
2230	 0.317708191092476 
2231	 0.326919798754455 
2232	 0.337169807787423 
2233	 0.341327099953222 
2234	 0.350812505635699 
2235	 0.352025320380129 
2236	 0.360233418732596 
2237	 0.381825788780473 
2238	 0.381522375664081 
2239	 0.394143652643262 
2240	 0.408542471442611 
2241	 0.417088561154669 
2242	 0.419554784392058 
2243	 0.432150809939529 
2244	 0.419587209316019 
2245	 0.364299966387579 
2246	 0.349429431710187 
2247	 0.343329554494749 
2248	 0.335767576919327 
2249	 0.357315573950501 
2250	 0.371767510688079 
2251	 0.377340260380109 
2252	 0.390437348490092 
2253	 0.39347912609773 
2254	 0.377232250381698 
2255	 0.369654772048708 
2256	 0.355646042856605 
2257	 0.345798049063101 
2258	 0.330980571778336 
2259	 0.297441159709935 
2260	 0.270397514641159 
2261	 0.28350353764643 
2262	 0.326124415870786 
2263	 0.350907172103358 
2264	 0.369118884774816 
2265	 0.367665255018833 
2266	 0.339561951706635 
2267	 0.357425317246701 
2268	 0.378175896727283 
2269	 0.36658402550249 
2270	 0.366967197374739 
2271	 0.367883198244188 
2272	 0.346045902061344 
2273	 0.357084403979426 
2274	 0.405341242176954 
2275	 0.418701036718406 
2276	 0.428738727247288 
2277	 0.433564017992641 
2278	 0.412113244806989 
2279	 0.413241729478886 
2280	 0.441389544561462 
2281	 0.444095175420598 
2282	 0.434129950120049 
2283	 0.431237531650062 
2284	 0.435084420560679 
2285	 0.384018450234454 
2286	 0.377244857788355 
2287	 0.366887993463305 
2288	 0.354307322487953 
2289	 0.407637202396316 
2290	 0.441679648820744 
2291	 0.494081430016191 
2292	 0.563695412123859 
2293	 0.540419565868546 
2294	 0.468080602358942 
2295	 0.42308028457112 
2296	 0.366855662345474 
2297	 0.333616674511069 
2298	 0.402412531220279 
2299	 0.47073634597938 
2300	 0.472528074817384 
2301	 0.504104681150922 
2302	 0.50074584483236 
2303	 0.48438636584062 
2304	 0.565892641994186 
2305	 0.562672358444687 
2306	 0.518621816458261 
2307	 0.495281794244204 
2308	 0.46285490036338 
2309	 0.394960299177585 
2310	 0.40559978998717 
2311	 0.462975035579571 
2312	 0.506489693221993 
2313	 0.615074033644063 
2314	 0.611933331448308 
2315	 0.53131488581686 
2316	 0.485465600835542 
2317	 0.385948715554868 
2318	 0.342587846047136 
2319	 0.329541641102062 
2320	 0.317001087403023 
2321	 0.30580944529346 
2322	 0.322506922759881 
2323	 0.413079085743553 
2324	 0.475671176410402 
2325	 0.521396895777516 
2326	 0.522595638536584 
2327	 0.470434271211497 
2328	 0.468605705202361 
2329	 0.481271192907946 
2330	 0.490372397647779 
2331	 0.549355043924382 
2332	 0.538995287595503 
2333	 0.4559845076001 
2334	 0.412274744431762 
2335	 0.341146697792899 
2336	 0.301818618280894 
2337	 0.335321402428285 
2338	 0.403199383081246 
2339	 0.509130528024139 
2340	 0.487046298253643 
2341	 0.385884417395764 
2342	 0.361759521037759 
2343	 0.354169761727679 
2344	 0.424947398451315 
2345	 0.466034145598758 
2346	 0.44563856364587 
2347	 0.445074440222972 
2348	 0.439769969013879 
2349	 0.459596063758517 
2350	 0.42645807742316 
2351	 0.346461325367709 
2352	 0.254384254344579 
2353	 0.22074782722655 
2354	 0.251142907930307 
2355	 0.319272442407281 
2356	 0.373804130232164 
2357	 0.411678037177165 
2358	 0.549532576279558 
2359	 0.675133240519703 
2360	 0.72639144973817 
2361	 0.755626573072166 
2362	 0.810684137395221 
2363	 0.832421065159045 
2364	 0.801273730341199 
2365	 0.768413521349304 
2366	 0.655240195201489 
2367	 0.495809871386454 
2368	 0.43414109552236 
2369	 0.437223290743483 
2370	 0.328493535952718 
2371	 0.402720652370397 
2372	 0.615795327569152 
2373	 0.718227072282093 
2374	 0.959179368871314 
2375	 1.14541519059582 
2376	 1.07363450814205 
2377	 1.66245168322977 
2378	 2.68094026624419 
2379	 3.15113570402667 
2380	 4.4128873490273 
2381	 3.61221465887712 
2382	 1.75661904569403 
2383	 1.21915637515733 
2384	 0.987961112288487 
2385	 0.707227342005803 
2386	 0.527719554372296 
2387	 0.427125649532305 
2388	 0.326126741673312 
2389	 0.316530306007369 
2390	 0.343006627280174 
2391	 0.412713601315465 
2392	 0.681560567224386 
2393	 0.708409509004798 
2394	 0.63233552975682 
2395	 0.537614916361321 
2396	 0.26664114015205 
2397	 0.211487988114606 
2398	 0.195303203939359 
2399	 0.205972319556592 
2400	 0.350816912899395 
2401	 4.05272248899002 
2402	-1.05354671838531 
2403	-1.26207581208177 
2404	-4.042472089903 
2405	 9.30263152919017 
2406	 0.617420430851977 
2407	 0.373536832995636 
2408	 0.306550180678133 
2409	 0.238952545455465 
2410	 0.217752833554898 
2411	 0.196894162711447 
2412	 0.156903846649142 
2413	 0.199176620340853 
2414	 0.333509981416319 
2415	 0.384736706940091 
2416	 0.58121140282596 
2417	 0.536257341386818 
2418	 0.111488782358702 
2419	-9.83197818664559E-02 
2420	-2.07944414560431 
2421	 188.261839507938 
2422	 0.576193065142201 
2423	-0.493795652760249 
2424	 2.07220678097773 
2425	 1.06431141710093 
2426	-0.126126529392702 
2427	-0.128464910049298 
2428	-0.241941525192094 
2429	-0.166621732696099 
2430	 0.349162605060706 
2431	 0.335708329322187 
2432	-0.204146764861329 
2433	 0.01864485066352 
2434	 0.98926575647681 
2435	 1.33597994187534 
2436	 1.97868920816903 
2437	 2.38953566181053 
2438	 1.15986770854858 
2439	 0.866914241289891 
2440	 1.86622888873641 
2441	 1.27340606162125 
2442	-0.457394493959354 
2443	-0.648937296542804 
2444	-0.801928821150419 
2445	-0.77649468831197 
2446	-0.406323739794784 
2447	-0.371771964674796 
2448	-0.530998524728592 
2449	-0.385172122130254 
2450	-0.267197080425107 
2451	 8.36405152066954E-02 
2452	 1.65725070645168 
2453	 3.83215024101012 
2454	-56.1220715211636 
2455	-49.4431227820526 
2456	 5.66838778213244 
2457	 1.8513823907273 
2458	 1.49172100523661 
2459	 1.95204562808994 
2460	 2.32975240160031 
2461	 9.80991861237139 
2462	 27.6904355693149 
2463	 3.00810675607341 
2464	 2.19728031120235 
2465	 1.02672067293742 
2466	 0.812030557769472 
2467	 1.78292330640662 
2468	 7.55339388763808 
2469	-6.46777842970218 
2470	-6.94813741666216 
2471	 7.27601681835136 
2472	 5.51056059680942 
2473	 6.20204143180358 
2474	 3.19249055619741 
2475	 3.31334126669063 
2476	 2.50609155329373 
2477	 1.52978251668541 
2478	 1.2810116640146 
2479	 1.13605491043243 
2480	 1.19144725351126 
2481	 1.34933028373587 
2482	 1.5180074066704 
2483	-6.38491079950161 
2484	-1.36317461519753 
2485	 44.4373593808637 
2486	 3.09086197887608 
2487	 1.19631879174996 
2488	 1.28014278310499 
2489	 2.44191781504131 
2490	 2.34768623334647 
2491	 1.86539892449041 
2492	 1.28828413918628 
2493	 0.54986137858326 
2494	 0.317618447542299 
2495	 0.17428439048555 
2496	 2.01290569914881E-02 
2497	 1.37617233919407 
2498	 1.13929349498854 
2499	 1.63716957569012 
2500	-8.72558626424804 
