Wavelength	000020.asd
350	 3.86556600197535E-02 
351	 3.80890204588341E-02 
352	 0.036564953448962 
353	 3.68858164410309E-02 
354	 3.74781282053628E-02 
355	 3.70836334656198E-02 
356	 0.035990237993353 
357	 3.57500443393347E-02 
358	 3.52470682448581E-02 
359	 3.59253822980528E-02 
360	 3.76345219246456E-02 
361	 3.74896976128637E-02 
362	 3.76287568192576E-02 
363	 0.037823590173485 
364	 3.75720446010976E-02 
365	 3.69811291623221E-02 
366	 3.67402942797498E-02 
367	 0.036618323808958 
368	 0.036209405585445 
369	 3.60056143383671E-02 
370	 3.64568610092637E-02 
371	 3.70585122867035E-02 
372	 3.68251132398237E-02 
373	 3.67906088430326E-02 
374	 3.67891021703506E-02 
375	 3.67698372780634E-02 
376	 3.69925928426288E-02 
377	 3.75278502123928E-02 
378	 3.77656620451046E-02 
379	 3.74689138793451E-02 
380	 3.77015346191999E-02 
381	 3.76182724257394E-02 
382	 3.74017820116939E-02 
383	 3.74628972817786E-02 
384	 0.0374139269087 
385	 3.78946882409043E-02 
386	 3.86451057943464E-02 
387	 3.87929741284922E-02 
388	 0.037821852550507 
389	 3.76575920343017E-02 
390	 3.84903265235326E-02 
391	 3.82146822166858E-02 
392	 3.87821447247626E-02 
393	 3.87873611418701E-02 
394	 3.77333038122686E-02 
395	 3.86040496097724E-02 
396	 3.91291977598854E-02 
397	 3.88669885761285E-02 
398	 3.83298436321411E-02 
399	 3.92636003427507E-02 
400	 3.98043814672548E-02 
401	 3.98434372938017E-02 
402	 4.02628129424035E-02 
403	 4.00850051855441E-02 
404	 4.04973374490491E-02 
405	 4.15199162234328E-02 
406	 4.14671635384918E-02 
407	 4.17227119064665E-02 
408	 4.21370816954922E-02 
409	 4.23968262636498E-02 
410	 4.26671098813007E-02 
411	 4.32014424871964E-02 
412	 4.37439797758623E-02 
413	 4.39880795752977E-02 
414	 4.46493811269438E-02 
415	 4.50236715167521E-02 
416	 4.52433531837878E-02 
417	 4.61424750150961E-02 
418	 4.66204173404034E-02 
419	 4.71104115658858E-02 
420	 4.77483648760399E-02 
421	 4.76100252873021E-02 
422	 4.82526048380385E-02 
423	 4.90490684156495E-02 
424	 4.91865710052904E-02 
425	 4.99459645259284E-02 
426	 5.04694096706837E-02 
427	 5.08103046072814E-02 
428	 5.15435332259251E-02 
429	 5.17102659198225E-02 
430	 5.21452385483438E-02 
431	 5.30227030049926E-02 
432	 5.33731140806207E-02 
433	 0.053992121576648 
434	 5.44982848723752E-02 
435	 5.46057208632646E-02 
436	 5.50393606992673E-02 
437	 5.52778082572169E-02 
438	 5.54476814422538E-02 
439	 5.58945134080628E-02 
440	 5.62500487167065E-02 
441	 5.65260910909116E-02 
442	 5.67814442259057E-02 
443	 5.70848202374711E-02 
444	 5.73537574030718E-02 
445	 5.76057796557373E-02 
446	 5.78659388158863E-02 
447	 5.81424321529618E-02 
448	 0.058250283043952 
449	 5.83968187692507E-02 
450	 5.88282751358878E-02 
451	 5.89507489320153E-02 
452	 5.90408383733661E-02 
453	 5.92898010762062E-02 
454	 0.059717206779143 
455	 5.99689768172438E-02 
456	 6.01741952759522E-02 
457	 6.04685951792989E-02 
458	 6.07547278961934E-02 
459	 6.09083772276692E-02 
460	 6.10604886884033E-02 
461	 6.14037694830175E-02 
462	 6.18071183268493E-02 
463	 6.20232750612306E-02 
464	 6.21009252301484E-02 
465	 6.23916825405998E-02 
466	 6.27235149017185E-02 
467	 6.30064309199563E-02 
468	 6.32665432055371E-02 
469	 6.38341885597281E-02 
470	 6.40445792801503E-02 
471	 6.41407943420018E-02 
472	 6.45846857537798E-02 
473	 6.46036489872027E-02 
474	 6.46997690914412E-02 
475	 6.50369863982453E-02 
476	 6.53315118147859E-02 
477	 6.54805519317512E-02 
478	 6.55737337548954E-02 
479	 6.57137128934292E-02 
480	 6.59164757609927E-02 
481	 6.60624658385749E-02 
482	 6.62486713166187E-02 
483	 6.65975073252685E-02 
484	 6.66779926284069E-02 
485	 6.67272506689117E-02 
486	 6.69881596913243E-02 
487	 6.76069417404364E-02 
488	 6.79069569018677E-02 
489	 6.83017455781804E-02 
490	 6.90318423617862E-02 
491	 6.91158879026925E-02 
492	 6.95234640114828E-02 
493	 7.02793302518784E-02 
494	 0.070949780927526 
495	 7.15670804779878E-02 
496	 0.072056135343114 
497	 0.072510218138904 
498	 7.32374260948538E-02 
499	 7.39100873526854E-02 
500	 7.45986161521558E-02 
501	 7.53916778392773E-02 
502	 0.076083462862715 
503	 7.67132920750476E-02 
504	 7.74311511922627E-02 
505	 7.84042088110117E-02 
506	 7.93263688242732E-02 
507	 8.01949242502575E-02 
508	 8.10536206962136E-02 
509	 8.19575912926068E-02 
510	 8.28171741020991E-02 
511	 8.36089028966312E-02 
512	 8.44022164211037E-02 
513	 8.55423364638793E-02 
514	 8.66535694348265E-02 
515	 8.75205271860195E-02 
516	 8.81091078507798E-02 
517	 8.88661457472786E-02 
518	 8.99304847762741E-02 
519	 0.091159036697169 
520	 0.092048808580493 
521	 9.27866554023798E-02 
522	 9.36401901895408E-02 
523	 9.47742254023822E-02 
524	 0.095665498864352 
525	 9.66618491899164E-02 
526	 9.77404948895027E-02 
527	 9.84855555350011E-02 
528	 9.93601104956883E-02 
529	 0.100260754134505 
530	 0.101043747981908 
531	 0.101676646337876 
532	 0.102588923113569 
533	 0.103651444480033 
534	 0.104490208027518 
535	 0.105215595528071 
536	 0.106025407558875 
537	 0.106994172146036 
538	 0.108013505563428 
539	 0.108963052347584 
540	 0.109797330245253 
541	 0.11057205946134 
542	 0.111605108143071 
543	 0.112432722675332 
544	 0.113102499278335 
545	 0.113989159134828 
546	 0.115003759247897 
547	 0.115992303301927 
548	 0.116881826284306 
549	 0.117774178037191 
550	 0.118682451132867 
551	 0.119578852122999 
552	 0.120440489321646 
553	 0.121374048133232 
554	 0.122269988242301 
555	 0.123195505794637 
556	 0.124371110562242 
557	 0.125198985951897 
558	 0.12595203333272 
559	 0.126923492906795 
560	 0.127996982117 
561	 0.128937511864642 
562	 0.12976605830803 
563	 0.130631447674605 
564	 0.131558424678567 
565	 0.132435970576111 
566	 0.133260124042234 
567	 0.134205246729405 
568	 0.135245833539061 
569	 0.136196087879596 
570	 0.136920727467339 
571	 0.137753723657915 
572	 0.138532609720158 
573	 0.139323307836963 
574	 0.140339813272659 
575	 0.141125237641143 
576	 0.141848601099187 
577	 0.142685262132787 
578	 0.143629214810414 
579	 0.14438427324369 
580	 0.145095739165271 
581	 0.145990607998471 
582	 0.146574282214537 
583	 0.147149250034075 
584	 0.147868614758707 
585	 0.14864767953675 
586	 0.14939067069771 
587	 0.150224692213637 
588	 0.151258122625137 
589	 0.152190194349158 
590	 0.152649335852284 
591	 0.152902307325072 
592	 0.153597192759929 
593	 0.154270259387543 
594	 0.154920555234431 
595	 0.15558121464275 
596	 0.156265677131963 
597	 0.156961142858651 
598	 0.157603613338792 
599	 0.158111120377839 
600	 0.158436928855572 
601	 0.158810315124373 
602	 0.15932042028938 
603	 0.159902911678565 
604	 0.160374878951364 
605	 0.160870030085675 
606	 0.161479393653096 
607	 0.162023962879973 
608	 0.162589645633321 
609	 0.163127448988486 
610	 0.163547971026795 
611	 0.163970230896078 
612	 0.164583357288784 
613	 0.165307585330978 
614	 0.165671404567031 
615	 0.166320653725585 
616	 0.166983679673639 
617	 0.167282600208178 
618	 0.167466626170724 
619	 0.167961334326341 
620	 0.168650735076267 
621	 0.169054646611452 
622	 0.169618392972429 
623	 0.170236970584895 
624	 0.170784537326014 
625	 0.171263469670709 
626	 0.17188557194568 
627	 0.172512086148325 
628	 0.17288718994889 
629	 0.173027103474012 
630	 0.173424353214504 
631	 0.174123779954668 
632	 0.174629736233954 
633	 0.174738419109425 
634	 0.174800451987994 
635	 0.175116920633778 
636	 0.175424246527076 
637	 0.175682363846153 
638	 0.175841636768375 
639	 0.175863477292075 
640	 0.175739943041737 
641	 0.175693450278411 
642	 0.175707277342704 
643	 0.175315021846314 
644	 0.175180444362427 
645	 0.175255255707576 
646	 0.175248652953405 
647	 0.174830784229466 
648	 0.17481697159185 
649	 0.17514738415244 
650	 0.174983695650047 
651	 0.174843517803996 
652	 0.174811305169374 
653	 0.174909585834665 
654	 0.175199362929691 
655	 0.175490933972397 
656	 0.175721749251672 
657	 0.175819523888499 
658	 0.175554453061561 
659	 0.175185664255114 
660	 0.174927673043252 
661	 0.174956236322589 
662	 0.175022795780518 
663	 0.175020987099484 
664	 0.174951397339189 
665	 0.175021685239898 
666	 0.175254826910296 
667	 0.175431357613911 
668	 0.175268269213812 
669	 0.175268007647066 
670	 0.175718504742173 
671	 0.176530299157703 
672	 0.177048551292241 
673	 0.177732219829852 
674	 0.178576772095385 
675	 0.179498204779898 
676	 0.180651548450081 
677	 0.181896757144978 
678	 0.183084525102527 
679	 0.184139328887669 
680	 0.186042410908768 
681	 0.187978882226047 
682	 0.189528553853599 
683	 0.191784712718299 
684	 0.194016146087864 
685	 0.196133809136538 
686	 0.198520163860378 
687	 0.201093879790804 
688	 0.203705636572278 
689	 0.205919635529459 
690	 0.207806749408768 
691	 0.210304581415221 
692	 0.212673366816634 
693	 0.214471761478432 
694	 0.21675106293281 
695	 0.218717976441618 
696	 0.220285903734073 
697	 0.221817152878743 
698	 0.223185498045088 
699	 0.224646701819793 
700	 0.226165390380852 
701	 0.227422893201544 
702	 0.228924500250518 
703	 0.230062632527644 
704	 0.230576080073845 
705	 0.23166952125307 
706	 0.232802484934236 
707	 0.23383942227047 
708	 0.234922318413489 
709	 0.236373954337682 
710	 0.237369434006035 
711	 0.237892297502476 
712	 0.239183447545759 
713	 0.240315352215583 
714	 0.241209053385829 
715	 0.242038758040273 
716	 0.243052537260558 
717	 0.244317842038643 
718	 0.245620791235129 
719	 0.246474574645944 
720	 0.247295439614691 
721	 0.248002599913989 
722	 0.24869271002115 
723	 0.249625713630054 
724	 0.250755809121888 
725	 0.251930665759614 
726	 0.252996834710605 
727	 0.254037881046384 
728	 0.254673382132561 
729	 0.255261104306983 
730	 0.256488982152365 
731	 0.257544942096691 
732	 0.258436882463502 
733	 0.259230947521527 
734	 0.259919616545281 
735	 0.260924788214795 
736	 0.262064432065999 
737	 0.263013157640792 
738	 0.263803955720458 
739	 0.264912916001239 
740	 0.2661636595967 
741	 0.26705914423036 
742	 0.267917695533909 
743	 0.268865683197392 
744	 0.26991654481287 
745	 0.270945139046842 
746	 0.27183714032323 
747	 0.272900708226879 
748	 0.274280549099814 
749	 0.275141944235519 
750	 0.276092893490835 
751	 0.277228821369502 
752	 0.27835715105122 
753	 0.279790880521466 
754	 0.280915623521244 
755	 0.281684051328276 
756	 0.282924037537774 
757	 0.284200491483483 
758	 0.285187983406559 
759	 0.285893788457136 
760	 0.287636459162585 
761	 0.289262433883249 
762	 0.289898800709138 
763	 0.291054799873378 
764	 0.292487422551761 
765	 0.293776877702753 
766	 0.294865830458213 
767	 0.296013248368699 
768	 0.29705405466219 
769	 0.298257439698579 
770	 0.299623523875889 
771	 0.300429890245834 
772	 0.301530558038526 
773	 0.302880850681989 
774	 0.30414225309462 
775	 0.305330305453339 
776	 0.306684599603891 
777	 0.308068679193633 
778	 0.309076286668862 
779	 0.310456184261704 
780	 0.311572777305604 
781	 0.312365015045147 
782	 0.314205329111342 
783	 0.315367363541579 
784	 0.316311678904548 
785	 0.317810091647047 
786	 0.319124867240538 
787	 0.320199996533383 
788	 0.321265405834584 
789	 0.322641337381502 
790	 0.323739134230977 
791	 0.32493663131585 
792	 0.326379661709218 
793	 0.327818838436356 
794	 0.329053186406445 
795	 0.330108901946335 
796	 0.331144878994966 
797	 0.332531201453698 
798	 0.333874313574716 
799	 0.335067400312268 
800	 0.336152698761661 
801	 0.337229790804899 
802	 0.338555117854583 
803	 0.33998939092882 
804	 0.341176568550006 
805	 0.342657375581625 
806	 0.343772781146924 
807	 0.344552853436815 
808	 0.346097809617218 
809	 0.347446843342775 
810	 0.34857752838628 
811	 0.349692066100982 
812	 0.350945137367371 
813	 0.352162552007261 
814	 0.35358027975991 
815	 0.355438774844565 
816	 0.35668718861271 
817	 0.358036058962381 
818	 0.359485215457662 
819	 0.360542837810807 
820	 0.361791787515553 
821	 0.362996191954556 
822	 0.364234423305472 
823	 0.365993314346137 
824	 0.36690231117972 
825	 0.367930934627769 
826	 0.36976058632505 
827	 0.371415483062937 
828	 0.372522799236805 
829	 0.373367597031164 
830	 0.374464024638374 
831	 0.375769732898603 
832	 0.377631049008877 
833	 0.379361156588783 
834	 0.380080368582203 
835	 0.381684452313935 
836	 0.38326529961469 
837	 0.384440427364172 
838	 0.385550609309967 
839	 0.38696594791424 
840	 0.388296941776902 
841	 0.389560576893778 
842	 0.391639740964963 
843	 0.392661247365401 
844	 0.393263892057894 
845	 0.394416500640561 
846	 0.396083380273217 
847	 0.397762836507662 
848	 0.399116320873243 
849	 0.400062912765766 
850	 0.401318151048465 
851	 0.402704103244062 
852	 0.404093440490537 
853	 0.405419030847326 
854	 0.406626495926415 
855	 0.407967557568241 
856	 0.409274494146915 
857	 0.410076607099776 
858	 0.411372077196068 
859	 0.412948627633312 
860	 0.414290129034385 
861	 0.414765736439405 
862	 0.415998344920544 
863	 0.417751939900046 
864	 0.419298820285942 
865	 0.419840929647958 
866	 0.421292427836229 
867	 0.422842240823351 
868	 0.423462227552029 
869	 0.42483557667969 
870	 0.425858595267483 
871	 0.426658976218302 
872	 0.427852441727603 
873	 0.429582982540939 
874	 0.43074643813433 
875	 0.431691084373883 
876	 0.433466647198239 
877	 0.43431812152917 
878	 0.434942305962667 
879	 0.436045792860108 
880	 0.437923718464598 
881	 0.438979685307175 
882	 0.439826275806978 
883	 0.441013924265746 
884	 0.442505833881863 
885	 0.443433013616047 
886	 0.444549482884817 
887	 0.445926404635205 
888	 0.445957229995681 
889	 0.446633281999955 
890	 0.447895409802909 
891	 0.449014588082675 
892	 0.448865261832634 
893	 0.45002734338154 
894	 0.450886387644682 
895	 0.449720895088766 
896	 0.451186848466779 
897	 0.45363786448534 
898	 0.454991850630419 
899	 0.454355497471197 
900	 0.456516903113511 
901	 0.457829079568704 
902	 0.458343866406125 
903	 0.459561313296087 
904	 0.461455984516244 
905	 0.461305186845851 
906	 0.460493471019431 
907	 0.462068390143058 
908	 0.463380252326975 
909	 0.46366469411112 
910	 0.464145517709349 
911	 0.466595142453893 
912	 0.465361286131605 
913	 0.465248378506314 
914	 0.467565618695102 
915	 0.469928658273775 
916	 0.472254976600462 
917	 0.472007643607799 
918	 0.471435257561635 
919	 0.475187183084125 
920	 0.47545211013694 
921	 0.477361160617323 
922	 0.480050098971988 
923	 0.476806758615288 
924	 0.478259313355995 
925	 0.480666766013106 
926	 0.480648813060766 
927	 0.47889161549051 
928	 0.479847367434761 
929	 0.476945692536706 
930	 0.468831298923552 
931	 0.472538626543522 
932	 0.465871621732082 
933	 0.454087728781245 
934	 0.450513220712382 
935	 0.457428146029062 
936	 0.46191335336625 
937	 0.465032170707336 
938	 0.467402308295782 
939	 0.466412463590945 
940	 0.471783560534891 
941	 0.477367882165882 
942	 0.475165459195036 
943	 0.460065692948166 
944	 0.474240740152811 
945	 0.480157007354449 
946	 0.466248210565371 
947	 0.473167315063118 
948	 0.477892432092892 
949	 0.471045915065623 
950	 0.464217930294964 
951	 0.480984020233383 
952	 0.479427227094584 
953	 0.486337143629219 
954	 0.501404076129935 
955	 0.493508319239077 
956	 0.498279246400305 
957	 0.498632220295781 
958	 0.493324324198587 
959	 0.495607071503011 
960	 0.486268415973687 
961	 0.491977977841228 
962	 0.503954901471285 
963	 0.495664424144913 
964	 0.501805718464561 
965	 0.507129688830862 
966	 0.506684509675471 
967	 0.504738480867921 
968	 0.507372988976691 
969	 0.506941501985671 
970	 0.50568286082321 
971	 0.508851873147841 
972	 0.505396319772144 
973	 0.507660956714001 
974	 0.51015874714709 
975	 0.504225679294524 
976	 0.515399044411518 
977	 0.516816472453543 
978	 0.510642713343447 
979	 0.509629800791118 
980	 0.514288558262751 
981	 0.512843721196911 
982	 0.512962876645322 
983	 0.519423101933991 
984	 0.515178565698634 
985	 0.518168814926757 
986	 0.521228080355774 
987	 0.51916518407045 
988	 0.522454869552265 
989	 0.522495860850757 
990	 0.520338029010899 
991	 0.518669139843628 
992	 0.519157621208729 
993	 0.52172650798393 
994	 0.519617287963568 
995	 0.517710369076979 
996	 0.529467984923116 
997	 0.524721588352428 
998	 0.522027561820069 
999	 0.52492311905425 
1000	 0.523123618402629 
1001	 0.567516416811732 
1002	 0.567234592082862 
1003	 0.568114315475912 
1004	 0.568714330024091 
1005	 0.566257064233442 
1006	 0.565470599329881 
1007	 0.566022568811427 
1008	 0.566079023026785 
1009	 0.563821206345228 
1010	 0.566090344296036 
1011	 0.570041599072858 
1012	 0.573194617505034 
1013	 0.575519189651911 
1014	 0.576497403636106 
1015	 0.574504559925334 
1016	 0.573773240422237 
1017	 0.573690328732082 
1018	 0.572767576639534 
1019	 0.572889354475349 
1020	 0.57542680888993 
1021	 0.576734189526949 
1022	 0.578663398856797 
1023	 0.579389854812127 
1024	 0.579864834027723 
1025	 0.577418185909106 
1026	 0.575459284269247 
1027	 0.577803926525216 
1028	 0.579413613816392 
1029	 0.578710423630009 
1030	 0.582863994417243 
1031	 0.58225666031838 
1032	 0.58043732162154 
1033	 0.577906756024685 
1034	 0.577992258019319 
1035	 0.575523536846873 
1036	 0.575802891365896 
1037	 0.580264602893276 
1038	 0.582788047519451 
1039	 0.581902504083417 
1040	 0.579568908139298 
1041	 0.578334003333103 
1042	 0.57780122230768 
1043	 0.579076501927229 
1044	 0.580703891229811 
1045	 0.582815418329317 
1046	 0.584401768500156 
1047	 0.584288108329222 
1048	 0.585795670623749 
1049	 0.585910123814223 
1050	 0.583831227055452 
1051	 0.584523807623953 
1052	 0.586779935803036 
1053	 0.586633684808212 
1054	 0.587794514874609 
1055	 0.588449221135502 
1056	 0.585685007369034 
1057	 0.584394928313539 
1058	 0.585267880525383 
1059	 0.584426161332453 
1060	 0.584192560580948 
1061	 0.584919781774757 
1062	 0.584705691873512 
1063	 0.585307681010972 
1064	 0.586188767368037 
1065	 0.587544614946588 
1066	 0.589038784903374 
1067	 0.590546298079992 
1068	 0.590800315708356 
1069	 0.591109902567586 
1070	 0.591165811540083 
1071	 0.591918846341422 
1072	 0.593683063465592 
1073	 0.594715409740165 
1074	 0.596085787737713 
1075	 0.595951027686076 
1076	 0.594949150331653 
1077	 0.59503405661352 
1078	 0.594075504386626 
1079	 0.592392296884854 
1080	 0.58945528617331 
1081	 0.588171771126211 
1082	 0.587812343117542 
1083	 0.587633671072226 
1084	 0.588986328913329 
1085	 0.589525574329058 
1086	 0.59042152113429 
1087	 0.591321137615765 
1088	 0.593509883062248 
1089	 0.596534950503365 
1090	 0.597548093481017 
1091	 0.597211888779022 
1092	 0.594121760748454 
1093	 0.592801443368402 
1094	 0.593664168146176 
1095	 0.59415212343383 
1096	 0.595509120032583 
1097	 0.599280072750399 
1098	 0.601330068766306 
1099	 0.599229045176719 
1100	 0.596314427810217 
1101	 0.593928452969862 
1102	 0.591359066056462 
1103	 0.588947841320496 
1104	 0.589632496202638 
1105	 0.592922433065787 
1106	 0.594619157438884 
1107	 0.594796728093404 
1108	 0.593855815415067 
1109	 0.591670630265816 
1110	 0.592229238692657 
1111	 0.59609574974625 
1112	 0.599763981965219 
1113	 0.608338221214111 
1114	 0.611907963583315 
1115	 0.614688483055347 
1116	 0.611448191595036 
1117	 0.595251632962341 
1118	 0.579669682981438 
1119	 0.563641870656196 
1120	 0.548668641085846 
1121	 0.55598582720665 
1122	 0.573697293552094 
1123	 0.603931687911913 
1124	 0.625281891953401 
1125	 0.623876053533401 
1126	 0.682533995022112 
1127	 0.704955372706323 
1128	 0.675147801644578 
1129	 0.666885213073962 
1130	 0.685380110863936 
1131	 0.648260172601489 
1132	 0.587259199370152 
1133	 0.590809681827641 
1134	 0.564137871166255 
1135	 0.559525499452922 
1136	 0.592743315215824 
1137	 0.591274666059287 
1138	 0.607102315269905 
1139	 0.622911533190672 
1140	 0.619684275480438 
1141	 0.635700168875755 
1142	 0.632488348218615 
1143	 0.603100962113169 
1144	 0.597037890341859 
1145	 0.587335335580135 
1146	 0.587501293507369 
1147	 0.6136856402914 
1148	 0.628447465393344 
1149	 0.6223677234624 
1150	 0.621943213465282 
1151	 0.619169456382101 
1152	 0.621509248423906 
1153	 0.613611493897086 
1154	 0.611969790651304 
1155	 0.603889816233022 
1156	 0.595615219494811 
1157	 0.59803445942135 
1158	 0.593189820957011 
1159	 0.592693392729131 
1160	 0.592613492328015 
1161	 0.593296455076606 
1162	 0.596436663305423 
1163	 0.598977459440017 
1164	 0.600804092074675 
1165	 0.602501039097475 
1166	 0.606825560412897 
1167	 0.608156862762611 
1168	 0.608661631427362 
1169	 0.610500172253318 
1170	 0.611354361190679 
1171	 0.609105523769425 
1172	 0.606372675241052 
1173	 0.605284319812303 
1174	 0.604825719916371 
1175	 0.604437068275323 
1176	 0.604400986997413 
1177	 0.606658213090388 
1178	 0.606327151895824 
1179	 0.604779839509049 
1180	 0.603044263231048 
1181	 0.598444026257096 
1182	 0.597302604061056 
1183	 0.596370240861455 
1184	 0.598166863163033 
1185	 0.602989759497739 
1186	 0.606754456999688 
1187	 0.607974853965737 
1188	 0.609013847610944 
1189	 0.609847538547842 
1190	 0.608562491446055 
1191	 0.60641808273918 
1192	 0.603717039059474 
1193	 0.602609504935587 
1194	 0.600483482649913 
1195	 0.600827975437642 
1196	 0.604895511767617 
1197	 0.605963560429376 
1198	 0.606573319161816 
1199	 0.60599038344075 
1200	 0.603360607189261 
1201	 0.601588377102091 
1202	 0.598561224347639 
1203	 0.597758419949576 
1204	 0.598305558341868 
1205	 0.599362582049382 
1206	 0.599970983123657 
1207	 0.598584594534069 
1208	 0.595760383771267 
1209	 0.594714434039315 
1210	 0.59556432608509 
1211	 0.598530081093943 
1212	 0.600092956989895 
1213	 0.603043781205176 
1214	 0.60445663201364 
1215	 0.603837867305724 
1216	 0.605391709760023 
1217	 0.608842797247762 
1218	 0.610219637197348 
1219	 0.611608570025045 
1220	 0.611965084869688 
1221	 0.610886018612915 
1222	 0.609267176782881 
1223	 0.608952072885797 
1224	 0.607372706250389 
1225	 0.606460528952511 
1226	 0.607137942492744 
1227	 0.606662175933832 
1228	 0.608261258758114 
1229	 0.608718266255155 
1230	 0.60879440393179 
1231	 0.608904015272227 
1232	 0.608803529426878 
1233	 0.608732626804324 
1234	 0.608972099038021 
1235	 0.609031375026279 
1236	 0.608489804552904 
1237	 0.60925187887011 
1238	 0.610868205271802 
1239	 0.611532918379304 
1240	 0.613139862262427 
1241	 0.613404309968202 
1242	 0.611679171400608 
1243	 0.611464419312564 
1244	 0.611621350373229 
1245	 0.610041931589586 
1246	 0.610222329411739 
1247	 0.610664969578637 
1248	 0.609919054716648 
1249	 0.608132269052306 
1250	 0.608325233493286 
1251	 0.60883759690226 
1252	 0.609121464312603 
1253	 0.610962874606577 
1254	 0.611662266162597 
1255	 0.611106431708865 
1256	 0.610930700653602 
1257	 0.611070623781386 
1258	 0.611309426566241 
1259	 0.61043961122807 
1260	 0.610898624420981 
1261	 0.613071159291689 
1262	 0.614199495662557 
1263	 0.61549846125271 
1264	 0.617465178034506 
1265	 0.616097127528878 
1266	 0.615344709715797 
1267	 0.614831621015426 
1268	 0.613934413091975 
1269	 0.614697310520113 
1270	 0.617222902824249 
1271	 0.618263873105853 
1272	 0.619863829574403 
1273	 0.620056548305078 
1274	 0.61915529287955 
1275	 0.619028262543926 
1276	 0.618398290289833 
1277	 0.618234415933124 
1278	 0.618694941529468 
1279	 0.618360580122559 
1280	 0.617973114984719 
1281	 0.617373243765454 
1282	 0.615618820115955 
1283	 0.615075155405544 
1284	 0.615543465980054 
1285	 0.614838219362195 
1286	 0.614797388862602 
1287	 0.616350041745116 
1288	 0.616889222989521 
1289	 0.616051299312941 
1290	 0.615580861855488 
1291	 0.614641048540775 
1292	 0.613999065177797 
1293	 0.613335402707809 
1294	 0.613103801624711 
1295	 0.612975853823737 
1296	 0.613027733107545 
1297	 0.613622905028367 
1298	 0.613641919809731 
1299	 0.613511583241616 
1300	 0.613482378329801 
1301	 0.613016827186297 
1302	 0.612738380651057 
1303	 0.612852599938766 
1304	 0.613104003394453 
1305	 0.613406851970552 
1306	 0.613581625511651 
1307	 0.615466588560258 
1308	 0.613880430046074 
1309	 0.611398707773914 
1310	 0.611872226847562 
1311	 0.610876563259194 
1312	 0.612022999170543 
1313	 0.613091298204624 
1314	 0.616837578350807 
1315	 0.616061442617534 
1316	 0.612727188255071 
1317	 0.611131479198043 
1318	 0.606494652295817 
1319	 0.605456522133354 
1320	 0.608738629649614 
1321	 0.608693473632357 
1322	 0.608247388283247 
1323	 0.607600877872653 
1324	 0.604449518605823 
1325	 0.604210752683677 
1326	 0.60639008181181 
1327	 0.606601095338693 
1328	 0.607304338189397 
1329	 0.607938636359046 
1330	 0.606492698608219 
1331	 0.606765100124562 
1332	 0.609443960294532 
1333	 0.612794219483022 
1334	 0.614175517157093 
1335	 0.608679427556869 
1336	 0.606001715924158 
1337	 0.600190648275709 
1338	 0.597189103359562 
1339	 0.596767618958812 
1340	 0.595200898190563 
1341	 0.59117918173226 
1342	 0.592137024869522 
1343	 0.595838789192063 
1344	 0.602489588045143 
1345	 0.620706860249635 
1346	 0.644132167210753 
1347	 0.683901794369555 
1348	 0.748138310494767 
1349	 0.90848356048962 
1350	 1.13675419446103 
1351	 1.28431793539393 
1352	 1.80679612964865 
1353	 2.49468770590432 
1354	 4.12667105359597 
1355	 7.26777251814682 
1356	 16.2634947781063 
1357	 2.47513378966948 
1358	 2.10061068289375 
1359	 3.06893334697398 
1360	 3.51098091684226 
1361	 5.52896967836503 
1362	 3.7286988478246 
1363	 2.18042192954112 
1364	 0.549948228808447 
1365	 0.340141487272812 
1366	 0.459753343018068 
1367	 0.451315017404823 
1368	 0.53490536154688 
1369	 0.655243863436612 
1370	 1.13969135624506 
1371	 1.77094226078563 
1372	 18.5389378599945 
1373	 7.31124338522379 
1374	 0.741886061799374 
1375	 0.741854848526206 
1376	 1.06663491201905 
1377	 1.2524048091597 
1378	 2.46028664369139 
1379	 3.38153377956317 
1380	 4.69521496369269 
1381	 2.64969768642188 
1382	 1.06491159643273 
1383	 0.708299666939129 
1384	 0.38440597400567 
1385	 0.263360821139598 
1386	 0.123120001019806 
1387	-1.01177901168401E-02 
1388	-8.91292996262538E-02 
1389	 30.4911471446099 
1390	 0.818049193525365 
1391	 0.386385025447977 
1392	 0.238250643493473 
1393	-4.76972074136431E-02 
1394	-3.85281628699334 
1395	 1.37352135555121 
1396	 0.722845456080447 
1397	 0.103354831091382 
1398	 0.105362010847708 
1399	 0.226300646306782 
1400	 0.256581518195675 
1401	 0.709937141145706 
1402	 1.6810040602323 
1403	-3.74832120204222 
1404	-5.5610210799442 
1405	 2.24102891146756 
1406	 1.81979821585612 
1407	 1.46917152620271 
1408	 1.14837131809722 
1409	-0.128376494042809 
1410	-0.711476963836145 
1411	-0.651962990126957 
1412	-0.664012248900228 
1413	-0.274250606692107 
1414	 2.92908960631331E-02 
1415	 0.301450199787158 
1416	 0.435091239469279 
1417	 0.736509935088258 
1418	 0.846760078521829 
1419	 0.762072574850867 
1420	 0.735231487693586 
1421	 0.711700879494272 
1422	 0.672895321735566 
1423	 0.592400541107028 
1424	 0.505661904267009 
1425	 0.481986413095069 
1426	 0.354874695943039 
1427	 0.443661656695175 
1428	 0.690476620050823 
1429	 0.899177716700818 
1430	 1.28602253954292 
1431	 1.55435624562089 
1432	 2.12830899490779 
1433	 2.39520958208681 
1434	 2.08648612330954 
1435	 2.13753011856208 
1436	 1.98269643533591 
1437	 2.04313199596431 
1438	 7.83963368653005 
1439	 3.26749533947445 
1440	 0.859035400811221 
1441	 0.669276844857019 
1442	 0.732857832982993 
1443	 0.71751528890965 
1444	 0.80641000109625 
1445	 0.819801199455303 
1446	 0.730957515827203 
1447	 0.735574527457194 
1448	 0.810241114634129 
1449	 0.796274603300167 
1450	 0.792653312799579 
1451	 0.759610799484104 
1452	 0.682837679119444 
1453	 0.630659152566854 
1454	 0.570071233558367 
1455	 0.543246532549783 
1456	 0.519303911239609 
1457	 0.519133677048923 
1458	 0.525207133720317 
1459	 0.546564282720975 
1460	 0.548714356363301 
1461	 0.549130916451923 
1462	 0.563317382880031 
1463	 0.584785090210061 
1464	 0.589482479654649 
1465	 0.597784971961845 
1466	 0.611757270381 
1467	 0.614415839302399 
1468	 0.602581716921266 
1469	 0.604638041306147 
1470	 0.598490937198791 
1471	 0.538878409935442 
1472	 0.53270728135683 
1473	 0.561492496736658 
1474	 0.580229825444744 
1475	 0.611444138373584 
1476	 0.62583262417141 
1477	 0.64876492336134 
1478	 0.647323733883881 
1479	 0.611426148010022 
1480	 0.610922078172315 
1481	 0.64362734588542 
1482	 0.624576952521071 
1483	 0.593877485479015 
1484	 0.575115520621952 
1485	 0.524746678433633 
1486	 0.512775610978513 
1487	 0.534906314180875 
1488	 0.535701482810915 
1489	 0.537664063734153 
1490	 0.533171007232944 
1491	 0.515964178254126 
1492	 0.512396943696078 
1493	 0.508428707341501 
1494	 0.511157700875356 
1495	 0.529252280775753 
1496	 0.533388190773825 
1497	 0.532881199984277 
1498	 0.532531604657996 
1499	 0.529008595305247 
1500	 0.519872664828582 
1501	 0.51556548372665 
1502	 0.518222374223846 
1503	 0.525781415739325 
1504	 0.529276387116618 
1505	 0.528753609133457 
1506	 0.528580100140493 
1507	 0.526759478181905 
1508	 0.517162038921332 
1509	 0.519396520627912 
1510	 0.527722169621634 
1511	 0.530360371431026 
1512	 0.536506827739639 
1513	 0.536452520533778 
1514	 0.530600764175291 
1515	 0.529321181229679 
1516	 0.527421623190278 
1517	 0.527723105493178 
1518	 0.529412730101216 
1519	 0.532202838572831 
1520	 0.537608295977084 
1521	 0.539473377801465 
1522	 0.541451517647718 
1523	 0.541952497810425 
1524	 0.540056875138875 
1525	 0.538363162063769 
1526	 0.535895697774743 
1527	 0.534911972369078 
1528	 0.533205806760262 
1529	 0.532854994922211 
1530	 0.533737044122203 
1531	 0.53553721459519 
1532	 0.539269155176338 
1533	 0.540510158167127 
1534	 0.542703792399496 
1535	 0.542363573261136 
1536	 0.536599376280397 
1537	 0.5363609710556 
1538	 0.538169626628131 
1539	 0.540068272028507 
1540	 0.546662503535168 
1541	 0.548811891038974 
1542	 0.548381730724631 
1543	 0.548005812958969 
1544	 0.545431030931882 
1545	 0.543868316815193 
1546	 0.541908117950002 
1547	 0.541065019182819 
1548	 0.540824147812625 
1549	 0.540826454693397 
1550	 0.542678514660294 
1551	 0.542997861303122 
1552	 0.542891230759214 
1553	 0.542277413205393 
1554	 0.540187141098008 
1555	 0.538908537143733 
1556	 0.536541709780316 
1557	 0.535868931882245 
1558	 0.536864681594616 
1559	 0.537448931793441 
1560	 0.538747375599241 
1561	 0.540801198701822 
1562	 0.544440376959249 
1563	 0.545792225046338 
1564	 0.547154582555107 
1565	 0.546751964203284 
1566	 0.54413334968866 
1567	 0.541948788893914 
1568	 0.539977377122095 
1569	 0.539535685708339 
1570	 0.54069514291577 
1571	 0.540302928645042 
1572	 0.542105194887131 
1573	 0.544291431965277 
1574	 0.543344937884053 
1575	 0.543209128675027 
1576	 0.542596213488148 
1577	 0.54039949095906 
1578	 0.541251174311899 
1579	 0.54561186193363 
1580	 0.550334330314689 
1581	 0.552566697292269 
1582	 0.554769043727152 
1583	 0.554951420302576 
1584	 0.552066836539901 
1585	 0.55302672171923 
1586	 0.550153381527924 
1587	 0.543759173835504 
1588	 0.541746756127253 
1589	 0.539809500886238 
1590	 0.539078051634779 
1591	 0.542294279352098 
1592	 0.541460111723764 
1593	 0.538420259497727 
1594	 0.538011182548582 
1595	 0.536792458703497 
1596	 0.537262635643403 
1597	 0.539534417082446 
1598	 0.542455809966987 
1599	 0.54721978258825 
1600	 0.549894482379831 
1601	 0.553687841276818 
1602	 0.554743380028953 
1603	 0.552137258920909 
1604	 0.552085532353215 
1605	 0.552802943008919 
1606	 0.551543054563039 
1607	 0.549314074887585 
1608	 0.549171689428811 
1609	 0.54821145813066 
1610	 0.549129904065983 
1611	 0.553653892593426 
1612	 0.55458164525809 
1613	 0.553514883694612 
1614	 0.554712244125149 
1615	 0.555744016270035 
1616	 0.556663227092791 
1617	 0.55867788325321 
1618	 0.560153152509602 
1619	 0.561219296177312 
1620	 0.561677098648507 
1621	 0.562848383551715 
1622	 0.561919002965926 
1623	 0.558955857643507 
1624	 0.557235127694385 
1625	 0.553994458775984 
1626	 0.553870773628279 
1627	 0.555904002900607 
1628	 0.556669915997076 
1629	 0.559803294323356 
1630	 0.56016734799273 
1631	 0.558057303325233 
1632	 0.556386999762026 
1633	 0.553116849511204 
1634	 0.552035011097701 
1635	 0.551179804364322 
1636	 0.552413431293992 
1637	 0.556917141127527 
1638	 0.557601055944062 
1639	 0.557826253192888 
1640	 0.558370710270785 
1641	 0.556576847999116 
1642	 0.557014031531648 
1643	 0.559440057761494 
1644	 0.559720945962797 
1645	 0.559038541299904 
1646	 0.559317691446701 
1647	 0.560477725868428 
1648	 0.559286440752225 
1649	 0.556931630196542 
1650	 0.555565650227135 
1651	 0.552118693940333 
1652	 0.550952190276528 
1653	 0.553321811332903 
1654	 0.55213915188053 
1655	 0.550560499736164 
1656	 0.546993903165942 
1657	 0.538828992949569 
1658	 0.535699788429194 
1659	 0.533662723177783 
1660	 0.533586634381687 
1661	 0.537773776180917 
1662	 0.541598422559677 
1663	 0.539877645176675 
1664	 0.539020513443254 
1665	 0.540375778653633 
1666	 0.537862499474908 
1667	 0.538339839096097 
1668	 0.538643362129569 
1669	 0.532996716034602 
1670	 0.532185564629889 
1671	 0.53078748351642 
1672	 0.529860791994544 
1673	 0.53684753572255 
1674	 0.538277698477731 
1675	 0.537938927681968 
1676	 0.537663297908681 
1677	 0.530641375233881 
1678	 0.529544525306327 
1679	 0.530724062469528 
1680	 0.528235900503768 
1681	 0.529583358440267 
1682	 0.529562520285544 
1683	 0.526471329505076 
1684	 0.527033255686534 
1685	 0.526871534708392 
1686	 0.525976394423797 
1687	 0.527759565228231 
1688	 0.525677410303944 
1689	 0.52513157053363 
1690	 0.525603884689292 
1691	 0.521574968110109 
1692	 0.523698634558023 
1693	 0.52508651714469 
1694	 0.523553199134014 
1695	 0.528307241564309 
1696	 0.531156852230613 
1697	 0.53038368874868 
1698	 0.527954718722915 
1699	 0.526870448667233 
1700	 0.526970042038047 
1701	 0.529811267852035 
1702	 0.540381874135351 
1703	 0.544348941760084 
1704	 0.541982195865269 
1705	 0.537962544469579 
1706	 0.528204692708557 
1707	 0.522416439483289 
1708	 0.520922539613369 
1709	 0.520215346863304 
1710	 0.520402481952312 
1711	 0.518835910691033 
1712	 0.5173083941718 
1713	 0.515685773466111 
1714	 0.511691797641201 
1715	 0.509545943128829 
1716	 0.5087082352532 
1717	 0.506881613572409 
1718	 0.509868757157205 
1719	 0.510563065266323 
1720	 0.505868220880401 
1721	 0.504726803028304 
1722	 0.503736037904228 
1723	 0.503301850821929 
1724	 0.509072832742646 
1725	 0.506740824702588 
1726	 0.494450865530811 
1727	 0.492282265660218 
1728	 0.491666210717901 
1729	 0.491121572103608 
1730	 0.497226709809983 
1731	 0.500236633613349 
1732	 0.499180288158016 
1733	 0.501598704171148 
1734	 0.510129957853206 
1735	 0.512564987239006 
1736	 0.511554608172722 
1737	 0.51043114613816 
1738	 0.505251594641079 
1739	 0.503363146333724 
1740	 0.500009759162817 
1741	 0.499352177970114 
1742	 0.506948421060827 
1743	 0.505689588716179 
1744	 0.508811834975226 
1745	 0.516139287173135 
1746	 0.509685269804921 
1747	 0.517859561475675 
1748	 0.525012806560509 
1749	 0.520129387890211 
1750	 0.52442077278982 
1751	 0.517088752026696 
1752	 0.512342941832569 
1753	 0.520512244647562 
1754	 0.517347594044123 
1755	 0.513761539174064 
1756	 0.515123386884566 
1757	 0.512201269621896 
1758	 0.51023365023239 
1759	 0.514637524413884 
1760	 0.524161753809802 
1761	 0.527130354135218 
1762	 0.527225925065701 
1763	 0.521705823389646 
1764	 0.50396672617625 
1765	 0.489941373790379 
1766	 0.480034872909838 
1767	 0.480438296625524 
1768	 0.491176346860015 
1769	 0.494582367684272 
1770	 0.490000350359538 
1771	 0.49083087235227 
1772	 0.497207988756073 
1773	 0.510091288238673 
1774	 0.53507032209825 
1775	 0.546830926324047 
1776	 0.533859123281025 
1777	 0.515709245786494 
1778	 0.512248735540596 
1779	 0.534360856971073 
1780	 0.533934227515035 
1781	 0.495889979509309 
1782	 0.466431524994544 
1783	 0.474103264850081 
1784	 0.458665884977145 
1785	 0.461142857552089 
1786	 0.484277865573098 
1787	 0.476773087197567 
1788	 0.493143956680113 
1789	 0.520430242195908 
1790	 0.489883575938425 
1791	 0.514054756563708 
1792	 0.591769117547067 
1793	 0.583363417176839 
1794	 0.621104303110459 
1795	 0.591889707483957 
1796	 0.419844083078784 
1797	 0.362145770569755 
1798	 0.368774459567143 
1799	 0.309928945220011 
1800	 0.358765118246263 
1801	 1.38394598856467 
1802	 1.645944371539 
1803	 2.93820719234243 
1804	 3.53375698381066 
1805	 3.06568710403184 
1806	 1.87464489519537 
1807	 1.39603369443724 
1808	 0.888632029675888 
1809	 0.81526863112822 
1810	 0.905695654991903 
1811	 0.859957400561703 
1812	 0.805925403231648 
1813	 0.848947727198754 
1814	 0.854039906909189 
1815	 0.896486905555746 
1816	 1.05275894808337 
1817	 1.37391884003774 
1818	 1.59420760522464 
1819	 2.03683591106869 
1820	 2.23862680929468 
1821	 1.95446715191189 
1822	 1.87240994261922 
1823	 1.71542571498777 
1824	 1.55135288547027 
1825	 1.30480968431256 
1826	 1.34932959938257 
1827	 1.29279892224688 
1828	 1.23790136792094 
1829	 1.20498927699204 
1830	 1.24447187768923 
1831	 1.14958896556105 
1832	 0.850484339892662 
1833	 0.816761272283463 
1834	 0.957446261461036 
1835	 0.97323671338379 
1836	 1.00294322271767 
1837	 1.25862027050444 
1838	 1.27891496349802 
1839	 0.994759314900062 
1840	 0.935189139661853 
1841	 0.957697367673489 
1842	 0.954123270065025 
1843	 0.944689760225537 
1844	 0.9501653935048 
1845	 1.04359462043041 
1846	 1.02866821610144 
1847	 1.00968121150985 
1848	 0.971912835263535 
1849	 0.942903611585561 
1850	 0.843232680031851 
1851	 0.847620740210392 
1852	 0.955407777696228 
1853	 0.967452026553496 
1854	 0.929461670063221 
1855	 0.958268942487147 
1856	 0.999140910833708 
1857	 1.01024876048053 
1858	 1.04347098009811 
1859	 1.3480067301849 
1860	 1.32393243146479 
1861	 1.0402473002812 
1862	 0.94691971644588 
1863	 0.713226434895936 
1864	 0.67906950569984 
1865	 0.858932496258155 
1866	 0.915964699625305 
1867	 0.962650782055949 
1868	 1.1928965429753 
1869	 1.14605922341188 
1870	 0.808757478927236 
1871	 0.751625249613948 
1872	 0.801960345086351 
1873	 0.762688701627621 
1874	 0.661400502144893 
1875	 0.610164577559873 
1876	 0.53782957021351 
1877	 0.519969480260918 
1878	 0.468048777597393 
1879	 0.380517049446026 
1880	 0.443844734881916 
1881	 0.573778699567351 
1882	 0.710082355857848 
1883	 1.11172659085314 
1884	 1.25607458993279 
1885	 1.09294152538204 
1886	 1.12865434080282 
1887	 1.19211476561454 
1888	 1.20886630106244 
1889	 1.38543362906343 
1890	 2.41404414126695 
1891	 2.50130667912681 
1892	 2.07821006869797 
1893	 1.80120584373882 
1894	 1.15657152781832 
1895	 0.945177319750191 
1896	 0.748016120912939 
1897	 0.650843712244011 
1898	 0.623321425027597 
1899	 0.665556190956811 
1900	 0.65747422551155 
1901	 0.722240584215765 
1902	 0.72355617359679 
1903	 0.635627118975744 
1904	 0.627286429698921 
1905	 0.652094901252912 
1906	 0.681428256550161 
1907	 0.722940958658911 
1908	 0.881698868749403 
1909	 0.78292447739157 
1910	 0.820044375600844 
1911	 0.828389157831372 
1912	 0.733291380610856 
1913	 0.772110326642328 
1914	 0.952530242928128 
1915	 1.02488977980117 
1916	 1.21316514513364 
1917	 1.31398777903889 
1918	 1.31486237932482 
1919	 1.19158858226195 
1920	 1.13742507651809 
1921	 0.951560479302814 
1922	 0.799732191289412 
1923	 0.597093955905336 
1924	 0.518772955434492 
1925	 0.40857826846627 
1926	 0.408520062586291 
1927	 0.545103563506866 
1928	 0.684310136584477 
1929	 0.881070444869093 
1930	 1.15977656226968 
1931	 1.11606828217516 
1932	 1.13761649351128 
1933	 1.42044219975264 
1934	 1.41402577387221 
1935	 1.44482281421089 
1936	 1.46190533860318 
1937	 1.43565476916024 
1938	 1.32495735048883 
1939	 1.26012458027735 
1940	 1.12696696478304 
1941	 1.20294020533425 
1942	 1.21056518538959 
1943	 1.08176706447452 
1944	 1.08923631806579 
1945	 1.15684828720674 
1946	 1.25391953669783 
1947	 1.54632942582193 
1948	 1.71103213729907 
1949	 2.04879764384537 
1950	 1.96001535577065 
1951	 1.26201904093194 
1952	 1.05771032071035 
1953	 1.01842131860793 
1954	 0.892802947232738 
1955	 0.793227362082353 
1956	 0.830588534257803 
1957	 0.749782211193485 
1958	 0.78174812862596 
1959	 0.807252610295382 
1960	 0.966339911300924 
1961	 1.01867840861625 
1962	 0.969486911949489 
1963	 0.954372339571734 
1964	 0.960905581891184 
1965	 0.876558052457175 
1966	 0.887829208162401 
1967	 0.889047751125178 
1968	 0.96963166729734 
1969	 1.00126306959016 
1970	 0.971226027393361 
1971	 0.928350719911998 
1972	 0.872471946616505 
1973	 0.70800493980974 
1974	 0.680105109688941 
1975	 0.715492037902171 
1976	 0.700357428066792 
1977	 0.677493679453126 
1978	 0.737324428265153 
1979	 0.667620817243453 
1980	 0.669552757808346 
1981	 0.705327603132774 
1982	 0.608035239307954 
1983	 0.596264113122839 
1984	 0.64014969059236 
1985	 0.617916269459422 
1986	 0.572695109075479 
1987	 0.577794110973088 
1988	 0.594226383852537 
1989	 0.575500945297983 
1990	 0.604272527053667 
1991	 0.578390025898777 
1992	 0.512921843966804 
1993	 0.593677898661175 
1994	 0.667051570011603 
1995	 0.722663133323533 
1996	 0.746019075785251 
1997	 0.73400434581065 
1998	 0.706712932192228 
1999	 0.611386576140036 
2000	 0.608870550447783 
2001	 0.656535378771462 
2002	 0.759690131144068 
2003	 0.926100775035434 
2004	 0.905907879891228 
2005	 0.793661348322172 
2006	 0.663320749324319 
2007	 0.570443419765508 
2008	 0.586867339406572 
2009	 0.620806238445599 
2010	 0.748741345214075 
2011	 0.855679263884531 
2012	 1.02290681513343 
2013	 1.07458562515587 
2014	 1.09022766609646 
2015	 1.00446014120845 
2016	 0.89890577497471 
2017	 0.894272689631547 
2018	 0.828427494116678 
2019	 0.863995143723814 
2020	 0.908272506604477 
2021	 0.879007584960814 
2022	 0.97663537047621 
2023	 0.989635054955571 
2024	 0.932470422887523 
2025	 0.859617699264214 
2026	 0.797257121014395 
2027	 0.677580346876304 
2028	 0.606947839635727 
2029	 0.603338312480075 
2030	 0.534610912855448 
2031	 0.498343777662601 
2032	 0.45799999173277 
2033	 0.39309593481048 
2034	 0.358601581928912 
2035	 0.36263928624932 
2036	 0.401808060662475 
2037	 0.431498302665947 
2038	 0.497535647014047 
2039	 0.535874203800807 
2040	 0.558802676394409 
2041	 0.552619686823386 
2042	 0.514117537036903 
2043	 0.517566174927634 
2044	 0.508945845595284 
2045	 0.518999482350947 
2046	 0.606874193199391 
2047	 0.609292139358615 
2048	 0.570164939093781 
2049	 0.58711817302418 
2050	 0.554759604867556 
2051	 0.573529773873527 
2052	 0.572892794721878 
2053	 0.576927852610358 
2054	 0.560151937480767 
2055	 0.532008204924772 
2056	 0.477858987473918 
2057	 0.46370761178076 
2058	 0.450237940726222 
2059	 0.444769627842717 
2060	 0.452577065783651 
2061	 0.469770495551965 
2062	 0.463792879065787 
2063	 0.528828849767558 
2064	 0.624283945290611 
2065	 0.682536122248258 
2066	 0.746778248557837 
2067	 0.722332522640869 
2068	 0.575866514403017 
2069	 0.504079078301675 
2070	 0.421914168137035 
2071	 0.391043121052176 
2072	 0.381288782840033 
2073	 0.400668052406247 
2074	 0.410244093435253 
2075	 0.379516069548717 
2076	 0.356271720345607 
2077	 0.329447331916975 
2078	 0.355516242219446 
2079	 0.413356065720784 
2080	 0.470933134705781 
2081	 0.521343381297029 
2082	 0.539194750993867 
2083	 0.522152280092486 
2084	 0.513522674826672 
2085	 0.485292137227761 
2086	 0.477862476231854 
2087	 0.474660722368418 
2088	 0.454560154599659 
2089	 0.438869608108748 
2090	 0.407958784119733 
2091	 0.385488935582861 
2092	 0.411637989710412 
2093	 0.434470650969534 
2094	 0.465232839234623 
2095	 0.503893237878531 
2096	 0.47164419319452 
2097	 0.44310361793341 
2098	 0.436810135602665 
2099	 0.432827936290203 
2100	 0.425524422217195 
2101	 0.450590249988351 
2102	 0.500807564949762 
2103	 0.547166205747593 
2104	 0.600536121098189 
2105	 0.620970498539102 
2106	 0.609087444676474 
2107	 0.576978715320756 
2108	 0.563598485255002 
2109	 0.554928415842804 
2110	 0.527150738242098 
2111	 0.494394519024628 
2112	 0.468275370525899 
2113	 0.464375669092172 
2114	 0.467750254010191 
2115	 0.524821950009504 
2116	 0.54013403754424 
2117	 0.530888669120797 
2118	 0.523533585184347 
2119	 0.507679951668527 
2120	 0.488146533959226 
2121	 0.485680957892577 
2122	 0.480390013067376 
2123	 0.488600332429511 
2124	 0.478564802325778 
2125	 0.457971182122703 
2126	 0.455658196853261 
2127	 0.443437916632614 
2128	 0.466265265297753 
2129	 0.489263480606371 
2130	 0.504077934430912 
2131	 0.541267278386284 
2132	 0.564895357131248 
2133	 0.563252634579835 
2134	 0.53537076132463 
2135	 0.518891407707841 
2136	 0.491048671864456 
2137	 0.447085861138579 
2138	 0.44534393181467 
2139	 0.488556685722198 
2140	 0.472568087374575 
2141	 0.482558391048423 
2142	 0.48459478710524 
2143	 0.459108241276252 
2144	 0.46665572791464 
2145	 0.467277875311807 
2146	 0.486004390967529 
2147	 0.502945549079483 
2148	 0.503637021382584 
2149	 0.510962566519233 
2150	 0.517348678889054 
2151	 0.510803453974786 
2152	 0.501117088825233 
2153	 0.500438124247277 
2154	 0.485894190571432 
2155	 0.459802047324865 
2156	 0.420144789153442 
2157	 0.383663500099929 
2158	 0.369223850786963 
2159	 0.371417504330305 
2160	 0.382066907850047 
2161	 0.418806101699365 
2162	 0.479188515089031 
2163	 0.502614046434106 
2164	 0.511857452875606 
2165	 0.524117877099849 
2166	 0.503115016525257 
2167	 0.50382896971225 
2168	 0.525573462394739 
2169	 0.521111239442141 
2170	 0.52086825017192 
2171	 0.538092468758973 
2172	 0.574207901421087 
2173	 0.582063557189289 
2174	 0.598435788266502 
2175	 0.606968266299753 
2176	 0.591941538409052 
2177	 0.573127526523893 
2178	 0.57025176243416 
2179	 0.529344201334207 
2180	 0.479958424475205 
2181	 0.420076288465618 
2182	 0.376353917646295 
2183	 0.352519394028017 
2184	 0.322415819329278 
2185	 0.327522030577704 
2186	 0.357433834077756 
2187	 0.409894905875678 
2188	 0.47118415706396 
2189	 0.522518783614255 
2190	 0.542953755483306 
2191	 0.496712147908088 
2192	 0.474042805674758 
2193	 0.440044468019929 
2194	 0.422878365928202 
2195	 0.410544244415468 
2196	 0.42618083413395 
2197	 0.473936978451471 
2198	 0.487176744825277 
2199	 0.501134545269733 
2200	 0.502483926082621 
2201	 0.467816104747238 
2202	 0.423706399425486 
2203	 0.451122547864208 
2204	 0.490845564621105 
2205	 0.520252786220152 
2206	 0.572727985621104 
2207	 0.594195423564671 
2208	 0.575336378304399 
2209	 0.564745898123123 
2210	 0.578203706067817 
2211	 0.59221539393878 
2212	 0.615045175743125 
2213	 0.580201507517103 
2214	 0.514392653269156 
2215	 0.467830336322939 
2216	 0.37927245612232 
2217	 0.329903170797125 
2218	 0.29833902696609 
2219	 0.284462177677213 
2220	 0.263029705149586 
2221	 0.276807342769725 
2222	 0.327856196487313 
2223	 0.390874580239131 
2224	 0.431513200421607 
2225	 0.502985387373619 
2226	 0.518617957347707 
2227	 0.549413604300986 
2228	 0.601672375222755 
2229	 0.577667183819806 
2230	 0.55966519895105 
2231	 0.531600604559875 
2232	 0.474402976804945 
2233	 0.464514880851606 
2234	 0.508917816940757 
2235	 0.562093529482159 
2236	 0.575766239417319 
2237	 0.582922990433498 
2238	 0.521559075919792 
2239	 0.439137547166833 
2240	 0.44803497853528 
2241	 0.45755022129165 
2242	 0.471512720186254 
2243	 0.541617479842377 
2244	 0.582060886167595 
2245	 0.6154226675658 
2246	 0.619540884226321 
2247	 0.610127604604919 
2248	 0.573321226594288 
2249	 0.478608800506394 
2250	 0.436459525136142 
2251	 0.393628054730173 
2252	 0.39434347998741 
2253	 0.420557306293556 
2254	 0.431315807191008 
2255	 0.466303295596637 
2256	 0.533620516871497 
2257	 0.567848561956607 
2258	 0.544447164347949 
2259	 0.515588332314276 
2260	 0.466733017047634 
2261	 0.464147596559156 
2262	 0.517638983553244 
2263	 0.54013266815968 
2264	 0.567505660593507 
2265	 0.587389024035239 
2266	 0.562544969955061 
2267	 0.502813499424367 
2268	 0.454886276199274 
2269	 0.430261810419745 
2270	 0.39248474890142 
2271	 0.366405374283316 
2272	 0.375052251980757 
2273	 0.392976900853039 
2274	 0.403916967476342 
2275	 0.41356004697751 
2276	 0.480774081248584 
2277	 0.501586130729627 
2278	 0.4596232515883 
2279	 0.476396445562203 
2280	 0.527056245157225 
2281	 0.525052862400924 
2282	 0.517983050652458 
2283	 0.50163839278895 
2284	 0.453657129812992 
2285	 0.41301092627227 
2286	 0.382486966434377 
2287	 0.41315118196469 
2288	 0.382025704105496 
2289	 0.394347911647927 
2290	 0.462544371643199 
2291	 0.42427537450032 
2292	 0.426537082185147 
2293	 0.481935841635844 
2294	 0.484309042837178 
2295	 0.502561789422752 
2296	 0.533560674920345 
2297	 0.497091150043723 
2298	 0.455299555212534 
2299	 0.4566343415158 
2300	 0.439620664647255 
2301	 0.434648864179956 
2302	 0.462407683331385 
2303	 0.521700799489635 
2304	 0.582396690514063 
2305	 0.62112294546022 
2306	 0.624982986006057 
2307	 0.549220733069239 
2308	 0.504697371075682 
2309	 0.426569979328014 
2310	 0.39883159026738 
2311	 0.396606447760364 
2312	 0.380805173548784 
2313	 0.39126903845441 
2314	 0.400869259938319 
2315	 0.373842651275529 
2316	 0.402003006160078 
2317	 0.496446252473675 
2318	 0.494592592209547 
2319	 0.474836367989397 
2320	 0.478225878735346 
2321	 0.431542179156297 
2322	 0.422611561435178 
2323	 0.456346019066058 
2324	 0.461085893289175 
2325	 0.451141844357594 
2326	 0.454503237049951 
2327	 0.467636994498491 
2328	 0.45984893324316 
2329	 0.415123705863536 
2330	 0.425720266956884 
2331	 0.461170688348434 
2332	 0.50428846250129 
2333	 0.6943476280116 
2334	 0.769435464055728 
2335	 0.733410716588021 
2336	 0.691887473344061 
2337	 0.68642143837935 
2338	 0.466658473030007 
2339	 0.3312153332674 
2340	 0.310607619330727 
2341	 0.26295152241855 
2342	 0.280333533770713 
2343	 0.35545585243643 
2344	 0.423929936644261 
2345	 0.502987955887559 
2346	 0.527118471567747 
2347	 0.502384897867094 
2348	 0.513741591725786 
2349	 0.736402865415419 
2350	 0.898125325460056 
2351	 1.01650363430316 
2352	 1.18066242094074 
2353	 1.09641830184027 
2354	 0.998958591721223 
2355	 0.921051540499309 
2356	 0.869484689369379 
2357	 0.811923971531009 
2358	 0.732484551181169 
2359	 0.746762063533412 
2360	 0.830714413489069 
2361	 0.864761977642845 
2362	 0.758737789884194 
2363	 0.608942136780566 
2364	 0.530668098383501 
2365	 0.499715535630539 
2366	 0.447897329912925 
2367	 0.3752279280889 
2368	 0.358319649373249 
2369	 0.432712656363816 
2370	 0.425902259767916 
2371	 0.478580863166967 
2372	 0.689583886504407 
2373	 0.794545525322184 
2374	 0.81992186587951 
2375	 0.891569006151547 
2376	 0.961663822438574 
2377	 1.04652435413991 
2378	 1.14493542788447 
2379	 1.18885095196094 
2380	 1.25091451949985 
2381	 1.26817478339769 
2382	 1.16133338244938 
2383	 1.09865921383237 
2384	 1.12191792614441 
2385	 1.07223630590577 
2386	 0.843986931458148 
2387	 0.891488305939976 
2388	 1.12238292340037 
2389	 1.15512799841203 
2390	 1.3154574011044 
2391	 1.34550681418371 
2392	 1.13180383112352 
2393	 1.03927154847724 
2394	 0.956281532198191 
2395	 0.896030524689346 
2396	 0.859751174095221 
2397	 0.859797733185521 
2398	 0.893000278877597 
2399	 0.98660371525237 
2400	 1.06254663736182 
2401	 1.15062548689361 
2402	 1.37609419998823 
2403	 1.55055379432143 
2404	 2.17441536793161 
2405	 2.30022399914618 
2406	 1.99591084631002 
2407	 1.59794558944616 
2408	 0.981556540208559 
2409	 0.85364145867207 
2410	 0.690832560297338 
2411	 0.602723382142222 
2412	 0.702313701952681 
2413	 0.733448190517907 
2414	 0.649694275601732 
2415	 0.762760267840644 
2416	 1.15055712844693 
2417	 1.45428337961903 
2418	 3.2062223841135 
2419	 3.02084085010922 
2420	 1.28674779998532 
2421	 0.962640004461097 
2422	 0.74401121810899 
2423	 0.600421564476417 
2424	 0.594815874993623 
2425	 0.59471909334396 
2426	 0.509274182580861 
2427	 0.494135316810816 
2428	 0.570810218608865 
2429	 0.616058124959178 
2430	 0.595640358093312 
2431	 0.742373621296948 
2432	 1.02150723784036 
2433	 1.0383576739572 
2434	 0.995988213711583 
2435	 0.972037749902626 
2436	 0.815704933786882 
2437	 0.718632297654289 
2438	 0.595875206740708 
2439	 0.51222392580046 
2440	 0.543416788659972 
2441	 0.378217750582326 
2442	 0.308917617659342 
2443	 0.209622835965092 
2444	-3.12961725782256E-03 
2445	-3.98171035669311E-02 
2446	-0.110298695779363 
2447	-0.037562100257198 
2448	 0.148822819503936 
2449	 0.228176767064374 
2450	 0.251039769700057 
2451	 0.18288007168755 
2452	 0.290667318027088 
2453	 0.594229400421262 
2454	 0.626816369313695 
2455	 0.895551356379762 
2456	 1.00672453776634 
2457	 0.975533315838105 
2458	 1.61345086245581 
2459	 1.11551933063712 
2460	 1.05286830306248 
2461	 0.87198654561571 
2462	 0.864598668149962 
2463	 1.1372376481534 
2464	 1.4200792733682 
2465	 2.60525069501101 
2466	 3.74118433358648 
2467	 2.07504710650821 
2468	 1.73452193344712 
2469	 1.19325700997774 
2470	 0.892087536133386 
2471	 0.572847462861544 
2472	 0.438656139510402 
2473	 0.596752233163216 
2474	 0.572170515427074 
2475	 0.350789966026756 
2476	 0.357555489855871 
2477	 0.519817543379105 
2478	 0.573794588924752 
2479	 0.725200112940324 
2480	 0.760300713090396 
2481	 0.564023142906001 
2482	 0.590179992091321 
2483	 0.899461135177513 
2484	 1.13204235802925 
2485	 3.05894355263596 
2486	 8.16489920196865 
2487	 1.55287357722894 
2488	 1.6035542210839 
2489	 1.86315739881361 
2490	 1.784739056649 
2491	 2.10358880093429 
2492	 1.90742014949657 
2493	 1.4107517129049 
2494	 1.26787416898914 
2495	 1.16360222207253 
2496	 1.15905943400022 
2497	 1.2963117397197 
2498	 1.1611918361319 
2499	 0.83975206110686 
2500	 0.742936490662246 
