Wavelength	000004.asd
350	 4.72524417243278E-02 
351	 4.68421109567034E-02 
352	 4.76093677125886E-02 
353	 4.80097448315875E-02 
354	 4.93734445650488E-02 
355	 4.90573521643813E-02 
356	 4.75442193144954E-02 
357	 4.81549165796115E-02 
358	 4.73770462411844E-02 
359	 4.79875659543052E-02 
360	 5.00723493277091E-02 
361	 0.048578020039702 
362	 4.73558990066292E-02 
363	 4.77092623827758E-02 
364	 4.90539430161044E-02 
365	 4.76348126344367E-02 
366	 4.70003162172784E-02 
367	 4.76689290451568E-02 
368	 4.87705747728803E-02 
369	 4.89996612863669E-02 
370	 0.048537368101764 
371	 4.80775511058691E-02 
372	 4.84653613923523E-02 
373	 4.91025399531343E-02 
374	 4.94281375020701E-02 
375	 4.95466276271652E-02 
376	 5.03205956590427E-02 
377	 4.94956065239125E-02 
378	 4.90350787719846E-02 
379	 5.04622448854064E-02 
380	 5.21060950748166E-02 
381	 5.27851277620636E-02 
382	 5.26493820828383E-02 
383	 5.25139394366698E-02 
384	 5.31096366127259E-02 
385	 5.40167123129313E-02 
386	 5.46335567844119E-02 
387	 0.054536528850792 
388	 5.54990268852325E-02 
389	 5.58800628710102E-02 
390	 5.55719946327753E-02 
391	 5.66301143070475E-02 
392	 5.68794786880091E-02 
393	 0.05705778800493 
394	 5.77757173712402E-02 
395	 0.058041870955124 
396	 5.82010772101604E-02 
397	 5.83811563107174E-02 
398	 5.86509762941687E-02 
399	 5.91540724304046E-02 
400	 5.91069677406293E-02 
401	 5.88766695889305E-02 
402	 5.93794216242782E-02 
403	 5.99707723427204E-02 
404	 6.05933096742624E-02 
405	 0.061004073731971 
406	 6.06663249318148E-02 
407	 0.061044179178794 
408	 6.17000541267257E-02 
409	 0.061996848659298 
410	 0.062014669183631 
411	 6.19464483582818E-02 
412	 0.061984251390923 
413	 0.062228983603461 
414	 0.062368795961781 
415	 6.26009264726442E-02 
416	 6.28305232372973E-02 
417	 6.27356498639188E-02 
418	 6.29757311893462E-02 
419	 6.31780364932398E-02 
420	 6.31549849301499E-02 
421	 6.33555983408374E-02 
422	 6.37316884995156E-02 
423	 6.41122901512447E-02 
424	 6.42915018169223E-02 
425	 6.40712119133598E-02 
426	 6.41224509546966E-02 
427	 0.064579625576241 
428	 6.50983456864078E-02 
429	 6.47468670849947E-02 
430	 6.46584162223752E-02 
431	 6.53003014093852E-02 
432	 6.59200146630386E-02 
433	 0.066031799357072 
434	 6.58404978750153E-02 
435	 6.58047694546765E-02 
436	 6.66332942058459E-02 
437	 6.69353864522512E-02 
438	 6.67237744737907E-02 
439	 6.66935406860332E-02 
440	 6.70538647087381E-02 
441	 6.75576558924224E-02 
442	 6.79325482935318E-02 
443	 6.79565014098732E-02 
444	 6.82005976559404E-02 
445	 6.85869469417271E-02 
446	 6.89284547493923E-02 
447	 6.91283707040496E-02 
448	 6.92911375833533E-02 
449	 6.95096658761903E-02 
450	 6.98352631523566E-02 
451	 7.01223500594463E-02 
452	 7.03516114684352E-02 
453	 7.05935600992919E-02 
454	 7.09930772661039E-02 
455	 7.14485968807661E-02 
456	 7.18141369596906E-02 
457	 7.20540844886133E-02 
458	 7.24217972441947E-02 
459	 7.27815867458724E-02 
460	 7.31021934332141E-02 
461	 7.34123143699933E-02 
462	 7.38555152824147E-02 
463	 7.42165086543908E-02 
464	 0.074486820842503 
465	 7.48959436329478E-02 
466	 7.54609827524269E-02 
467	 7.59425713267467E-02 
468	 7.62690858773942E-02 
469	 7.69664830290161E-02 
470	 0.077396475022904 
471	 7.76680235394877E-02 
472	 7.81575754571196E-02 
473	 7.87702687794397E-02 
474	 7.93110965142289E-02 
475	 7.97830018140985E-02 
476	 8.03988293990654E-02 
477	 8.10149129837755E-02 
478	 8.16121424917252E-02 
479	 8.21703494355294E-02 
480	 8.25784590713599E-02 
481	 8.30959743571359E-02 
482	 8.38930599392689E-02 
483	 8.49651024045673E-02 
484	 8.55148338912379E-02 
485	 8.59480500260217E-02 
486	 8.66648013410415E-02 
487	 8.78800041359099E-02 
488	 8.85963320771283E-02 
489	 8.92404993086337E-02 
490	 0.090217545799006 
491	 9.09171534800144E-02 
492	 9.16228900241236E-02 
493	 9.25348514270465E-02 
494	 9.36969386670742E-02 
495	 9.43245346663988E-02 
496	 9.50930543618444E-02 
497	 9.62492153653859E-02 
498	 9.73023441207786E-02 
499	 9.83004464622903E-02 
500	 9.93316051008308E-02 
501	 0.10044440213969 
502	 0.101454320504349 
503	 0.102569181525847 
504	 0.103804129421438 
505	 0.105029075696695 
506	 0.105955774828403 
507	 0.106910683280815 
508	 0.108108824797801 
509	 0.109485449164076 
510	 0.110867460454566 
511	 0.112169528980963 
512	 0.113410971609921 
513	 0.114840774756339 
514	 0.116325517013404 
515	 0.11765804345433 
516	 0.118641444283319 
517	 0.120138103618874 
518	 0.121853814747203 
519	 0.123386141706195 
520	 0.124545276863685 
521	 0.125990825630974 
522	 0.12761704433299 
523	 0.129115292367692 
524	 0.130574643383905 
525	 0.132247044273856 
526	 0.134042954472091 
527	 0.135538840852019 
528	 0.137106629105565 
529	 0.138800670148725 
530	 0.140549093775247 
531	 0.142089012858926 
532	 0.143784406789178 
533	 0.145592204304732 
534	 0.147292736422965 
535	 0.14897734501053 
536	 0.150723587610101 
537	 0.152586878537556 
538	 0.154570725911229 
539	 0.156340026959453 
540	 0.158104841535734 
541	 0.160094876133812 
542	 0.162050390855976 
543	 0.16374641276048 
544	 0.165429987009489 
545	 0.167568963231571 
546	 0.169375844783359 
547	 0.171271974453068 
548	 0.173436142516601 
549	 0.175314849101613 
550	 0.177147833587099 
551	 0.17911900763375 
552	 0.181300346939982 
553	 0.183241968104686 
554	 0.185333247930332 
555	 0.187510220102762 
556	 0.189269546703273 
557	 0.191268559401866 
558	 0.193383854253618 
559	 0.195445631612587 
560	 0.197719420679705 
561	 0.199696380648458 
562	 0.20154690518094 
563	 0.203676951540696 
564	 0.205506570180679 
565	 0.207394168431466 
566	 0.209434533066741 
567	 0.211226007252773 
568	 0.213207981763113 
569	 0.215102546293974 
570	 0.216621701261683 
571	 0.218386836668419 
572	 0.220255127899896 
573	 0.222001553927336 
574	 0.223412779543411 
575	 0.225009622984178 
576	 0.226622584771869 
577	 0.228104500658936 
578	 0.229663285447156 
579	 0.23118540688401 
580	 0.232500825187153 
581	 0.233546056726003 
582	 0.234914765892891 
583	 0.236431177841275 
584	 0.237902236171896 
585	 0.239173492244402 
586	 0.240384751683183 
587	 0.241664812800546 
588	 0.243168364382569 
589	 0.24496742935532 
590	 0.246446979959915 
591	 0.24747261314555 
592	 0.24844976236333 
593	 0.249397652662286 
594	 0.25059837463585 
595	 0.252007570166223 
596	 0.25302415526676 
597	 0.253854360423765 
598	 0.254645113787737 
599	 0.255486360276239 
600	 0.256268409843232 
601	 0.257346595507534 
602	 0.258566959022702 
603	 0.259332954672606 
604	 0.260183024582259 
605	 0.260994497157429 
606	 0.26170634297596 
607	 0.262742616882746 
608	 0.263754522033069 
609	 0.264734989827783 
610	 0.265783121074182 
611	 0.266540840026466 
612	 0.267354576900077 
613	 0.268300180640511 
614	 0.26896870500627 
615	 0.269658670088352 
616	 0.270393601448718 
617	 0.27113577240586 
618	 0.27194746985604 
619	 0.272863047267078 
620	 0.273774340355391 
621	 0.274471810246575 
622	 0.275120290469026 
623	 0.275624441713573 
624	 0.276048174595438 
625	 0.276927938849182 
626	 0.277688901448399 
627	 0.278310854617074 
628	 0.278928581497517 
629	 0.279137953507562 
630	 0.279533839956017 
631	 0.280215841522321 
632	 0.280652575360377 
633	 0.281052195674668 
634	 0.281492528223796 
635	 0.28191840629542 
636	 0.281859185038394 
637	 0.282272543702111 
638	 0.282808333137506 
639	 0.282571674143374 
640	 0.283063446583359 
641	 0.283656810761837 
642	 0.283914677783331 
643	 0.284157552047422 
644	 0.284513456535473 
645	 0.284759768027812 
646	 0.284719210481283 
647	 0.285107504313849 
648	 0.285301578505699 
649	 0.285248282510191 
650	 0.285437729696229 
651	 0.285429098239686 
652	 0.285389617465049 
653	 0.285430843695231 
654	 0.285312953207503 
655	 0.285137773399986 
656	 0.284987272618485 
657	 0.284900240899304 
658	 0.28445268543122 
659	 0.284181016609629 
660	 0.284128042563409 
661	 0.283819973108198 
662	 0.283682489541643 
663	 0.283434302437329 
664	 0.282888300755579 
665	 0.282659546819334 
666	 0.282315158067345 
667	 0.281872437184397 
668	 0.281585253092243 
669	 0.281202677967802 
670	 0.280764945931519 
671	 0.280433776903308 
672	 0.28052922858814 
673	 0.280448784133494 
674	 0.2802452103808 
675	 0.280131550819016 
676	 0.280063018410057 
677	 0.280053438391494 
678	 0.279973050488444 
679	 0.279630504301716 
680	 0.279617605838768 
681	 0.279616409451187 
682	 0.279485027828813 
683	 0.279823636144744 
684	 0.279826712686793 
685	 0.279647166175755 
686	 0.279758517411646 
687	 0.280168595962367 
688	 0.280314921482787 
689	 0.280066245150848 
690	 0.279872562172867 
691	 0.280054511952944 
692	 0.280389081268401 
693	 0.280630166694805 
694	 0.280730752433372 
695	 0.280757881324602 
696	 0.280781171611579 
697	 0.280872136218187 
698	 0.281174120803126 
699	 0.281410260456892 
700	 0.28149577455503 
701	 0.281679677998542 
702	 0.281657623988355 
703	 0.281501782225385 
704	 0.281359806395022 
705	 0.281304666425538 
706	 0.281521038645694 
707	 0.281932758215624 
708	 0.282312664648556 
709	 0.282537033382458 
710	 0.282605855381759 
711	 0.282689031167131 
712	 0.283157664428092 
713	 0.28381193739183 
714	 0.284403262433455 
715	 0.284870310285038 
716	 0.286017247206378 
717	 0.2871882512579 
718	 0.288319019651019 
719	 0.289773234105655 
720	 0.289376861733172 
721	 0.288851759109814 
722	 0.289081421480829 
723	 0.289884515064753 
724	 0.29073815899344 
725	 0.291414054413708 
726	 0.291867581824004 
727	 0.292216821202014 
728	 0.292430614584451 
729	 0.292699714315363 
730	 0.293284899996327 
731	 0.293830619580619 
732	 0.294061876963785 
733	 0.294117716980079 
734	 0.294528491723732 
735	 0.294691580107102 
736	 0.294969241580579 
737	 0.295660861459172 
738	 0.295975907531064 
739	 0.296486960441787 
740	 0.297060124472425 
741	 0.297238664185664 
742	 0.297722483226999 
743	 0.298075559143633 
744	 0.29831855768695 
745	 0.299292861652415 
746	 0.299725393963201 
747	 0.300042816379312 
748	 0.300817405970133 
749	 0.30149825461049 
750	 0.301950460935602 
751	 0.302417224958228 
752	 0.303276912519003 
753	 0.303936447016825 
754	 0.304620038660181 
755	 0.305369377681102 
756	 0.305865043949876 
757	 0.3066300639287 
758	 0.307351103410799 
759	 0.307807444586451 
760	 0.309079130369407 
761	 0.310744587565805 
762	 0.312062786812959 
763	 0.313479981874667 
764	 0.313665092085517 
765	 0.313891979904276 
766	 0.314418846155667 
767	 0.314882532452443 
768	 0.31580818776405 
769	 0.31662486232067 
770	 0.317073217730742 
771	 0.31791636165281 
772	 0.3183391664302 
773	 0.318933947400214 
774	 0.320382824329993 
775	 0.320913022455186 
776	 0.321581164285266 
777	 0.32253097495643 
778	 0.323062664910822 
779	 0.323894938364033 
780	 0.324668886842937 
781	 0.325250346502057 
782	 0.32622386419988 
783	 0.326803804751704 
784	 0.327230417539545 
785	 0.327922495332434 
786	 0.328713293429089 
787	 0.329375537909521 
788	 0.329896786766292 
789	 0.330460934405663 
790	 0.331571356494445 
791	 0.332265347905462 
792	 0.332347229346632 
793	 0.332707812342061 
794	 0.333156530334011 
795	 0.333877519401136 
796	 0.334804470065576 
797	 0.335085229118077 
798	 0.335306251972226 
799	 0.33557157113137 
800	 0.335926513376222 
801	 0.337043963702533 
802	 0.33768563130052 
803	 0.337722930731097 
804	 0.337922646546701 
805	 0.337974185269241 
806	 0.338401069382665 
807	 0.339134246941672 
808	 0.339198190506394 
809	 0.33951179791338 
810	 0.340281225126496 
811	 0.341264096433096 
812	 0.341276068404592 
813	 0.34185297485206 
814	 0.342757848270905 
815	 0.343006430805807 
816	 0.343993286940931 
817	 0.344340199495298 
818	 0.344193720678503 
819	 0.344705245850796 
820	 0.344372738525299 
821	 0.343861061979189 
822	 0.343836600011703 
823	 0.344692337274 
824	 0.345031990579648 
825	 0.345175385744448 
826	 0.345404497905736 
827	 0.344892172089472 
828	 0.345438496977165 
829	 0.346022350295037 
830	 0.345367534937759 
831	 0.345945100234345 
832	 0.345967920456866 
833	 0.345571828294625 
834	 0.345825652919504 
835	 0.345843724784874 
836	 0.345666771082898 
837	 0.345605652386723 
838	 0.346063955244943 
839	 0.346121251799525 
840	 0.345905195941154 
841	 0.345815319498991 
842	 0.3463851827689 
843	 0.346483333406266 
844	 0.346205764093693 
845	 0.346024812529909 
846	 0.346528557509501 
847	 0.346755871332417 
848	 0.346698051149963 
849	 0.34670831817549 
850	 0.346817587283125 
851	 0.346929811584025 
852	 0.347146541242659 
853	 0.347608636664771 
854	 0.347735849727402 
855	 0.347728156738744 
856	 0.347697948531788 
857	 0.347598907617102 
858	 0.347562132601816 
859	 0.347582055796584 
860	 0.347668624930824 
861	 0.347881431405948 
862	 0.347688907237999 
863	 0.347539777468674 
864	 0.347722315855935 
865	 0.347516678605518 
866	 0.34791816018058 
867	 0.348362642672772 
868	 0.348082442873211 
869	 0.347466702142774 
870	 0.347483103383998 
871	 0.347634936627672 
872	 0.34715528548581 
873	 0.347556721609292 
874	 0.348050132385508 
875	 0.348130521222598 
876	 0.347736788672988 
877	 0.347788182340743 
878	 0.34792995153194 
879	 0.347765184710985 
880	 0.347121511845209 
881	 0.347213261594953 
882	 0.347146680602506 
883	 0.346980522210145 
884	 0.348209417117289 
885	 0.348496694329489 
886	 0.348344913481384 
887	 0.348268499451441 
888	 0.347803273507659 
889	 0.347978848965917 
890	 0.348313143228997 
891	 0.348172995175463 
892	 0.347490317954413 
893	 0.348400840469246 
894	 0.349165238850006 
895	 0.347758507049446 
896	 0.347553384177496 
897	 0.349608747786287 
898	 0.35066051677087 
899	 0.347746445576297 
900	 0.348977699103457 
901	 0.348205896658716 
902	 0.345407193731264 
903	 0.343370503643749 
904	 0.343721761818365 
905	 0.344264559493004 
906	 0.343498240751105 
907	 0.341185238990733 
908	 0.341987094069549 
909	 0.341892816879067 
910	 0.340794909054326 
911	 0.341602650147221 
912	 0.339980775388179 
913	 0.339899923601253 
914	 0.341790447882809 
915	 0.342669012185179 
916	 0.342275514840124 
917	 0.339854538713364 
918	 0.337877312898021 
919	 0.33992190877492 
920	 0.338906132759576 
921	 0.338113911854701 
922	 0.338685763374225 
923	 0.33879250870961 
924	 0.338804137150074 
925	 0.339004189887144 
926	 0.339009511729907 
927	 0.337440430074387 
928	 0.334252726843543 
929	 0.330271810517856 
930	 0.329353339429009 
931	 0.340396974343514 
932	 0.337617242698701 
933	 0.338291505649894 
934	 0.355092173307844 
935	 0.354982228035175 
936	 0.34583268612423 
937	 0.353790989774754 
938	 0.369181040191438 
939	 0.349996683100078 
940	 0.351422095399256 
941	 0.351921001623229 
942	 0.345703644518278 
943	 0.354305602555142 
944	 0.352627929179648 
945	 0.353698070844543 
946	 0.357578260826346 
947	 0.342178808864691 
948	 0.332540079037218 
949	 0.335452572410898 
950	 0.344111447430458 
951	 0.343062084199474 
952	 0.339635304797396 
953	 0.34607978479487 
954	 0.355246359188782 
955	 0.346718350857932 
956	 0.357095157834425 
957	 0.362961902733196 
958	 0.356995169600845 
959	 0.350882563220042 
960	 0.350495194383829 
961	 0.358100837664313 
962	 0.363704465447566 
963	 0.355604105387564 
964	 0.353436928487456 
965	 0.352846695365972 
966	 0.351339283583472 
967	 0.349562464008325 
968	 0.351797554246899 
969	 0.354586169911229 
970	 0.355796435734634 
971	 0.355268308797927 
972	 0.355981632870822 
973	 0.351978505777119 
974	 0.348911264268465 
975	 0.354117506583872 
976	 0.3529157501903 
977	 0.35248157125514 
978	 0.352877621836399 
979	 0.352745702973112 
980	 0.35750969043506 
981	 0.358112873826183 
982	 0.358899671091906 
983	 0.361734048957847 
984	 0.351957838675304 
985	 0.35447907236788 
986	 0.35924686234822 
987	 0.35708362291779 
988	 0.357868202019729 
989	 0.353442234209434 
990	 0.350178961117753 
991	 0.351251290191397 
992	 0.351153326746511 
993	 0.354650984539522 
994	 0.354396606723828 
995	 0.350984369633343 
996	 0.353521068444187 
997	 0.350441322290132 
998	 0.351059953159194 
999	 0.35405920566541 
1000	 0.350963813208422 
1001	 0.358189764794465 
1002	 0.357822052647629 
1003	 0.358495463198926 
1004	 0.358972702185983 
1005	 0.360812615536577 
1006	 0.36156201790455 
1007	 0.361539779366471 
1008	 0.362070302829964 
1009	 0.362915215963631 
1010	 0.363557231497626 
1011	 0.364375053221601 
1012	 0.363304528454003 
1013	 0.363525308313272 
1014	 0.363661447174635 
1015	 0.362759333702837 
1016	 0.362259320726421 
1017	 0.360745962181663 
1018	 0.357046360855747 
1019	 0.356006583642528 
1020	 0.355319030980087 
1021	 0.356099790517914 
1022	 0.359552618464278 
1023	 0.360907374206958 
1024	 0.362276256255315 
1025	 0.363625349798259 
1026	 0.362300855624746 
1027	 0.36041578390888 
1028	 0.360004185323508 
1029	 0.3581364021366 
1030	 0.358828720516617 
1031	 0.361388977447117 
1032	 0.361791899162396 
1033	 0.361875134657291 
1034	 0.362254393042842 
1035	 0.36129895040399 
1036	 0.360598353689989 
1037	 0.361194831594795 
1038	 0.359977755249777 
1039	 0.356292357974484 
1040	 0.355269137977979 
1041	 0.354385662798771 
1042	 0.354175347611657 
1043	 0.354776321145557 
1044	 0.354249312402296 
1045	 0.354685275430766 
1046	 0.355848093598748 
1047	 0.358702202024845 
1048	 0.360875477464716 
1049	 0.36143370346952 
1050	 0.36068329240557 
1051	 0.35978139513046 
1052	 0.356935425438277 
1053	 0.355107902999306 
1054	 0.355249638244501 
1055	 0.355742811063381 
1056	 0.357931527306474 
1057	 0.360487651227951 
1058	 0.362039255319381 
1059	 0.36192097174233 
1060	 0.362132200284369 
1061	 0.36148859726681 
1062	 0.359231192086173 
1063	 0.358410973174218 
1064	 0.357998154596587 
1065	 0.357105655595306 
1066	 0.357147806669826 
1067	 0.35956486195953 
1068	 0.360662367165128 
1069	 0.359203161292156 
1070	 0.358701467149868 
1071	 0.359065876332854 
1072	 0.358430057190331 
1073	 0.360611361392938 
1074	 0.363079233261573 
1075	 0.361691041567824 
1076	 0.361492962410818 
1077	 0.361315891021075 
1078	 0.35948956224411 
1079	 0.360257472661266 
1080	 0.363357883778752 
1081	 0.366145905447679 
1082	 0.367006559398001 
1083	 0.368664802556779 
1084	 0.369777309887745 
1085	 0.371292436269992 
1086	 0.373181099005729 
1087	 0.374236131818776 
1088	 0.372949216054108 
1089	 0.369716694765796 
1090	 0.368868937207152 
1091	 0.36973703203807 
1092	 0.369589842426055 
1093	 0.369558642921261 
1094	 0.370228633685328 
1095	 0.370062054008265 
1096	 0.368393719015988 
1097	 0.36882159585257 
1098	 0.371446291580207 
1099	 0.371026237899827 
1100	 0.373548451107637 
1101	 0.375557169386334 
1102	 0.373887594505875 
1103	 0.37377728164694 
1104	 0.370033926724242 
1105	 0.368594260020718 
1106	 0.369621586072675 
1107	 0.370553581578757 
1108	 0.375037895156662 
1109	 0.374794944060027 
1110	 0.376413995801853 
1111	 0.381334882038761 
1112	 0.382163276804288 
1113	 0.377154093441302 
1114	 0.382709578803188 
1115	 0.384769493249847 
1116	 0.381977322582065 
1117	 0.395514882949943 
1118	 0.394036235392696 
1119	 0.405247125983531 
1120	 0.441322322196418 
1121	 0.442829833688814 
1122	 0.465377610544867 
1123	 0.494678880288773 
1124	 0.472074933916819 
1125	 0.491808209797475 
1126	 0.530094237264028 
1127	 0.548988075588555 
1128	 0.581730413831744 
1129	 0.559324305843397 
1130	 0.508472420735257 
1131	 0.458101212435037 
1132	 0.419323943612997 
1133	 0.355063873008599 
1134	 0.33170794913791 
1135	 0.33902230404195 
1136	 0.32598958294633 
1137	 0.352613824582449 
1138	 0.396393049032579 
1139	 0.386859349029376 
1140	 0.381857240282503 
1141	 0.372378730338232 
1142	 0.363837322765149 
1143	 0.34536709183397 
1144	 0.345473116007966 
1145	 0.356866851299235 
1146	 0.36280931588684 
1147	 0.370883265972169 
1148	 0.369289398014839 
1149	 0.382713353057425 
1150	 0.398829145121088 
1151	 0.402770118752386 
1152	 0.398566921922006 
1153	 0.375656654375846 
1154	 0.344865333890463 
1155	 0.331224948337812 
1156	 0.329797044513368 
1157	 0.330265926511664 
1158	 0.330927567507559 
1159	 0.329893947200295 
1160	 0.326122436244228 
1161	 0.324099892092934 
1162	 0.321668687068679 
1163	 0.322409460742703 
1164	 0.325829125283016 
1165	 0.325234639187317 
1166	 0.324181964588578 
1167	 0.321675694809316 
1168	 0.314774704359104 
1169	 0.310082264630179 
1170	 0.308884079974407 
1171	 0.308418998486173 
1172	 0.310205108316627 
1173	 0.311026853350826 
1174	 0.308893223211256 
1175	 0.306716474113692 
1176	 0.304104114678576 
1177	 0.29971841947478 
1178	 0.296627222690802 
1179	 0.294144575696755 
1180	 0.291012148806832 
1181	 0.288116555283443 
1182	 0.285134708603176 
1183	 0.282119376483769 
1184	 0.277383585955181 
1185	 0.273405072760794 
1186	 0.269545443070123 
1187	 0.264934428994169 
1188	 0.262576757263918 
1189	 0.263786052772715 
1190	 0.262905520897714 
1191	 0.258876829004205 
1192	 0.25640797633166 
1193	 0.254981704725571 
1194	 0.25094042606881 
1195	 0.251026444919481 
1196	 0.257097887192885 
1197	 0.257986802770942 
1198	 0.25797255480004 
1199	 0.257363296585795 
1200	 0.253097491837692 
1201	 0.25161993739776 
1202	 0.25078032239136 
1203	 0.251667402592612 
1204	 0.252238269931745 
1205	 0.251066230167194 
1206	 0.250826725392118 
1207	 0.249772085703553 
1208	 0.248234878403698 
1209	 0.246212602214259 
1210	 0.245506784295391 
1211	 0.244381038107131 
1212	 0.244450167669726 
1213	 0.246706786938636 
1214	 0.247754861156618 
1215	 0.248058914749039 
1216	 0.248977139809252 
1217	 0.249694000851843 
1218	 0.250880722933867 
1219	 0.252157576799419 
1220	 0.254187598257518 
1221	 0.256415959180499 
1222	 0.259960166429363 
1223	 0.263445048628505 
1224	 0.2670660630845 
1225	 0.269446244473741 
1226	 0.272064563305148 
1227	 0.275373369442582 
1228	 0.278182683781943 
1229	 0.281336770499436 
1230	 0.285571595658839 
1231	 0.287817689396496 
1232	 0.288969387531338 
1233	 0.290698148631631 
1234	 0.291283424999994 
1235	 0.293388424003933 
1236	 0.296556441457735 
1237	 0.299251175099559 
1238	 0.302656739219696 
1239	 0.305271942455497 
1240	 0.307312519324804 
1241	 0.309798768300078 
1242	 0.312439414499531 
1243	 0.314738185179926 
1244	 0.316745657945498 
1245	 0.318930362243508 
1246	 0.321042915532723 
1247	 0.323211923716896 
1248	 0.325128270039307 
1249	 0.327295652106515 
1250	 0.328916084665506 
1251	 0.329875059322386 
1252	 0.331262006536422 
1253	 0.332729914105252 
1254	 0.334170321435977 
1255	 0.33586920517776 
1256	 0.33714571196354 
1257	 0.338618241966591 
1258	 0.339415701657811 
1259	 0.339691369000132 
1260	 0.339551110711098 
1261	 0.337540666459394 
1262	 0.337416974470968 
1263	 0.337472190655041 
1264	 0.338933776453307 
1265	 0.342166019294986 
1266	 0.344998440713375 
1267	 0.346627242209284 
1268	 0.347186217144794 
1269	 0.348689955139121 
1270	 0.350263330512187 
1271	 0.350626461927281 
1272	 0.351334883580306 
1273	 0.351008037983823 
1274	 0.348039699148024 
1275	 0.347577409967699 
1276	 0.348458212741816 
1277	 0.348460977972828 
1278	 0.348402649008236 
1279	 0.349165767061433 
1280	 0.349539622036783 
1281	 0.350863874239899 
1282	 0.354693633145791 
1283	 0.356520582031505 
1284	 0.358196175202685 
1285	 0.358258310351604 
1286	 0.357940471779869 
1287	 0.358209111787975 
1288	 0.357999654630304 
1289	 0.357516685427342 
1290	 0.358098562048088 
1291	 0.35924650140764 
1292	 0.359087199814859 
1293	 0.359395793164214 
1294	 0.35952819495787 
1295	 0.357727662669164 
1296	 0.357823680193539 
1297	 0.359979722821541 
1298	 0.36023818572979 
1299	 0.359765347090804 
1300	 0.359679783559161 
1301	 0.358238040645858 
1302	 0.358789257784315 
1303	 0.360815700580312 
1304	 0.363024362774926 
1305	 0.36791844465783 
1306	 0.370078663728323 
1307	 0.370952335899478 
1308	 0.371641950390818 
1309	 0.370252616026433 
1310	 0.370222131609244 
1311	 0.369569597563091 
1312	 0.370790072305338 
1313	 0.371800396684894 
1314	 0.373328543810449 
1315	 0.373303108657243 
1316	 0.372580914807909 
1317	 0.372862010787128 
1318	 0.372978132867186 
1319	 0.372342799855934 
1320	 0.373039406617117 
1321	 0.37242612538332 
1322	 0.369714909899649 
1323	 0.366908549631815 
1324	 0.361698971136535 
1325	 0.360006666264478 
1326	 0.356900434783925 
1327	 0.358481217256807 
1328	 0.371314503598015 
1329	 0.379115647743208 
1330	 0.388302481353512 
1331	 0.39617723048189 
1332	 0.399350861394651 
1333	 0.401477582464843 
1334	 0.404339297272768 
1335	 0.411084376004426 
1336	 0.406913774535415 
1337	 0.395776107657913 
1338	 0.386392740967027 
1339	 0.364829617724167 
1340	 0.361989221055299 
1341	 0.369359359445335 
1342	 0.375362344078657 
1343	 0.396726810420139 
1344	 0.416677219063025 
1345	 0.444933530237715 
1346	 0.486460840465434 
1347	 0.578722807037935 
1348	 0.673888715215454 
1349	 0.76280781903749 
1350	 1.03638156607687 
1351	 1.70701655733696 
1352	-127.287678171821 
1353	-2.48312279267102 
1354	-0.947925124801172 
1355	-0.703238667531387 
1356	-0.432690750219752 
1357	-0.290402413000718 
1358	-0.175830971502088 
1359	 0.072892175007734 
1360	 0.467149967171688 
1361	 0.157741076215638 
1362	-0.331303482179702 
1363	-0.24193765629513 
1364	-7.44952921839278E-02 
1365	 0.123361714531444 
1366	 5.85075594318002 
1367	-6.82459445379371 
1368	-4.75777698644792E-02 
1369	 0.607200078832185 
1370	-2.95534168262877 
1371	-1.36999468499586 
1372	-0.414367065032647 
1373	-0.298322556538957 
1374	-0.165023846611835 
1375	-0.111042450662277 
1376	 3.41245059905435E-02 
1377	-7.81698064683052E-03 
1378	-0.427975776962701 
1379	-0.478332041284158 
1380	-0.462304274564407 
1381	-0.4282191460815 
1382	-0.244212505092919 
1383	 0.324514171889394 
1384	 1.64469177201458 
1385	 3.42260247943042 
1386	 5.29095808828427 
1387	 2.60215246543104 
1388	 0.547453695102913 
1389	 0.990144560773502 
1390	 0.662383006273541 
1391	 0.117609588606496 
1392	-5.25972846536426E-02 
1393	 2.94498100824139 
1394	 1.14452285226131 
1395	-0.968368208806084 
1396	-0.648644311284478 
1397	-0.400952056450561 
1398	-0.294251441411441 
1399	-6.51648424804404E-03 
1400	-6.25677511768806E-02 
1401	-0.250052070356461 
1402	-0.421628733852569 
1403	-1.10895444483213 
1404	-1.38494617919832 
1405	-1.02076335928913 
1406	-1.03222737015582 
1407	-1.07218586942042 
1408	-1.07187430393845 
1409	-1.25924433766697 
1410	-1.24213600474444 
1411	-0.773097450791717 
1412	-0.698447460787497 
1413	-1.26607166480952 
1414	-1.14318749732859 
1415	-0.770296794501202 
1416	-0.590822234613828 
1417	-5.07922537771913E-02 
1418	 2.93304747919236E-02 
1419	-0.181131849600204 
1420	-0.384370012454217 
1421	-0.564111011991388 
1422	-0.91768952513863 
1423	-1.16775366319948 
1424	-2.41902330125021 
1425	-9.81318201691918 
1426	 5.66531791261189 
1427	 1.45789935721411 
1428	 0.488730535778551 
1429	 0.61194106800889 
1430	 1.03739188124642 
1431	 1.17542124510799 
1432	 1.51383531628548 
1433	 1.68959586910965 
1434	 1.92681877466119 
1435	 1.90872297229718 
1436	 2.39987962416331 
1437	 1.50895849776467 
1438	-1.87791046953982E-02 
1439	-0.223044131975401 
1440	-0.142881309434808 
1441	-4.31463200488052E-02 
1442	 0.947723692829845 
1443	 1.43207572047131 
1444	 0.914761605340579 
1445	 0.749479931803519 
1446	 0.563311471204984 
1447	 0.46147090289801 
1448	 0.46187848944738 
1449	 0.408857832129516 
1450	 0.330559091894971 
1451	 0.305610038617355 
1452	 0.27449176298191 
1453	 0.264540369387043 
1454	 0.289418595437311 
1455	 0.289662061558507 
1456	 0.252295583601574 
1457	 0.269377093402657 
1458	 0.284852328574219 
1459	 0.292268079852581 
1460	 0.326244947881425 
1461	 0.404660533897168 
1462	 0.413450714453204 
1463	 0.406692594178047 
1464	 0.404318591408531 
1465	 0.344141355576375 
1466	 0.3580502462457 
1467	 0.474576695685663 
1468	 0.469048569239347 
1469	 0.427082104283008 
1470	 0.387117834153975 
1471	 0.239372866298138 
1472	 0.198472095945452 
1473	 0.225915507838396 
1474	 0.242551110587058 
1475	 0.289967764446156 
1476	 0.283425453847642 
1477	 0.249386046236202 
1478	 0.258420152659598 
1479	 0.274386655813457 
1480	 0.263477498407598 
1481	 0.268470056293006 
1482	 0.271932321119131 
1483	 0.232556310602273 
1484	 0.233548923513723 
1485	 0.278760501544362 
1486	 0.287940853153074 
1487	 0.284562783024334 
1488	 0.282582105574797 
1489	 0.265840337323585 
1490	 0.268077399558878 
1491	 0.28105797540872 
1492	 0.286655573178288 
1493	 0.294613372159983 
1494	 0.300890779898598 
1495	 0.303008120764165 
1496	 0.306105299405897 
1497	 0.313276620941541 
1498	 0.31584465858424 
1499	 0.315566761671954 
1500	 0.313800444101371 
1501	 0.313685747114628 
1502	 0.318751711946683 
1503	 0.326156058546633 
1504	 0.335512500557721 
1505	 0.335538478514095 
1506	 0.332638584662475 
1507	 0.327846856800298 
1508	 0.316019691150282 
1509	 0.312885790428426 
1510	 0.312416432780215 
1511	 0.311078023541192 
1512	 0.311696077015274 
1513	 0.312469019849287 
1514	 0.311964369791707 
1515	 0.314674164816721 
1516	 0.321666605250889 
1517	 0.322636814134816 
1518	 0.323464603313544 
1519	 0.320776709519255 
1520	 0.311656249608297 
1521	 0.309541678052038 
1522	 0.307578954517425 
1523	 0.308970052006887 
1524	 0.316866745997227 
1525	 0.319023664533696 
1526	 0.318921517806677 
1527	 0.320956212179777 
1528	 0.321066340288054 
1529	 0.323278250730981 
1530	 0.329446542638071 
1531	 0.332461384246569 
1532	 0.335113257769986 
1533	 0.335936600250958 
1534	 0.333604103386223 
1535	 0.334080655473732 
1536	 0.335059883960572 
1537	 0.335593127426054 
1538	 0.337842739415293 
1539	 0.338839809554033 
1540	 0.338909465770334 
1541	 0.338069361092844 
1542	 0.336124875562008 
1543	 0.335023073163366 
1544	 0.331690867538762 
1545	 0.331589907517452 
1546	 0.334439628803313 
1547	 0.336569742176373 
1548	 0.341175167453756 
1549	 0.343614413205272 
1550	 0.344550427816918 
1551	 0.34569894810852 
1552	 0.346793382426698 
1553	 0.34624874718255 
1554	 0.343518046910986 
1555	 0.342639286140179 
1556	 0.341447292917788 
1557	 0.340877447325773 
1558	 0.342720857856113 
1559	 0.34325397610198 
1560	 0.342343597960566 
1561	 0.342146208594466 
1562	 0.340034893280362 
1563	 0.342658050611196 
1564	 0.344755134103567 
1565	 0.344094862740799 
1566	 0.343108138122033 
1567	 0.339465742263091 
1568	 0.336593657833568 
1569	 0.335635284077193 
1570	 0.335427435514521 
1571	 0.337002466088041 
1572	 0.336599573847634 
1573	 0.337163620525146 
1574	 0.339628322971339 
1575	 0.340419422766568 
1576	 0.341917401150483 
1577	 0.341993644658726 
1578	 0.340023926361074 
1579	 0.338372630636586 
1580	 0.337454275131195 
1581	 0.336850923886197 
1582	 0.338344675045338 
1583	 0.339582962325043 
1584	 0.338676893874268 
1585	 0.340429590226514 
1586	 0.340171901222979 
1587	 0.338272476684634 
1588	 0.337619986295821 
1589	 0.336564863016248 
1590	 0.336725730661573 
1591	 0.337974711463723 
1592	 0.338841572790025 
1593	 0.340873094954316 
1594	 0.341231407680446 
1595	 0.340351877239349 
1596	 0.340096225640582 
1597	 0.339774599804572 
1598	 0.339039052785624 
1599	 0.338397131394128 
1600	 0.338026098372571 
1601	 0.337063072544924 
1602	 0.33552963821918 
1603	 0.33406896869336 
1604	 0.332862380463946 
1605	 0.330838264657033 
1606	 0.329822196543548 
1607	 0.329285449689459 
1608	 0.329590387221529 
1609	 0.331672918575352 
1610	 0.330534593389704 
1611	 0.329071078162688 
1612	 0.327669704819102 
1613	 0.3234284319432 
1614	 0.321803102734528 
1615	 0.322051024188611 
1616	 0.321651753864827 
1617	 0.322006249689663 
1618	 0.320069899244181 
1619	 0.316865623941074 
1620	 0.314803460334315 
1621	 0.311317805127027 
1622	 0.308924202621581 
1623	 0.307907083123092 
1624	 0.308321149336603 
1625	 0.309582698160253 
1626	 0.309313505008381 
1627	 0.311231435243485 
1628	 0.309124939290643 
1629	 0.303018123925324 
1630	 0.299074213583967 
1631	 0.294225515882066 
1632	 0.29086538013785 
1633	 0.287501179246136 
1634	 0.287395162314939 
1635	 0.290505959027224 
1636	 0.289619409721535 
1637	 0.289401862800756 
1638	 0.289010338357038 
1639	 0.285722810614027 
1640	 0.283826349799786 
1641	 0.282898463470742 
1642	 0.283469621623523 
1643	 0.284181465463894 
1644	 0.28467512840487 
1645	 0.288066130256754 
1646	 0.288759528146973 
1647	 0.286806981235996 
1648	 0.285403210916356 
1649	 0.283971248499365 
1650	 0.283522085207904 
1651	 0.281933738989064 
1652	 0.282219584523602 
1653	 0.285307369540889 
1654	 0.285641363284456 
1655	 0.285748492081025 
1656	 0.284519746578775 
1657	 0.282653057906158 
1658	 0.27919081528263 
1659	 0.273297960540219 
1660	 0.268729120345659 
1661	 0.262982805025092 
1662	 0.259370251603748 
1663	 0.256527046163817 
1664	 0.253604135976322 
1665	 0.250280209272264 
1666	 0.248705993973326 
1667	 0.24640879690366 
1668	 0.244135849985175 
1669	 0.243508445780565 
1670	 0.237580509970845 
1671	 0.232348011754416 
1672	 0.229142181247764 
1673	 0.223307996395425 
1674	 0.222219931804129 
1675	 0.221981515313498 
1676	 0.219775384093634 
1677	 0.219318067762943 
1678	 0.214506136243441 
1679	 0.210793028243921 
1680	 0.210988312884415 
1681	 0.207735281024386 
1682	 0.204545951413931 
1683	 0.200096040445516 
1684	 0.19127874715222 
1685	 0.183830502166647 
1686	 0.177449795027809 
1687	 0.17188974561396 
1688	 0.1662477155702 
1689	 0.158188363544574 
1690	 0.153177857331713 
1691	 0.149499423224371 
1692	 0.14513215607509 
1693	 0.144344269918987 
1694	 0.14383038812331 
1695	 0.140176423209786 
1696	 0.139089970382806 
1697	 0.138923966702745 
1698	 0.13837231048455 
1699	 0.137140283000589 
1700	 0.132761375982952 
1701	 0.130405011040034 
1702	 0.125587868824144 
1703	 0.123368481479507 
1704	 0.127777952236877 
1705	 0.13198883389355 
1706	 0.134377573233673 
1707	 0.134763387582545 
1708	 0.132036056311719 
1709	 0.127114491459211 
1710	 0.128414903968461 
1711	 0.128495620799326 
1712	 0.129138563975805 
1713	 0.129156273874097 
1714	 0.123414234322944 
1715	 0.121859813223266 
1716	 0.119343100751281 
1717	 0.118973617167004 
1718	 0.122295618012963 
1719	 0.122000718567871 
1720	 0.124982765357713 
1721	 0.124308917655926 
1722	 0.119640185692398 
1723	 0.116828018907691 
1724	 0.110242377535157 
1725	 0.104637316879855 
1726	 9.91327388082465E-02 
1727	 9.91700332627561E-02 
1728	 0.102468766363069 
1729	 0.109811629208803 
1730	 0.126804748956202 
1731	 0.1331351929571 
1732	 0.136658849625054 
1733	 0.13947037327999 
1734	 0.134297705801111 
1735	 0.132885535206843 
1736	 0.132365022251969 
1737	 0.133542308106189 
1738	 0.138530776216861 
1739	 0.142783585963921 
1740	 0.150527758875204 
1741	 0.155646860273404 
1742	 0.148828317835854 
1743	 0.149581270337484 
1744	 0.152626767086606 
1745	 0.146953659214621 
1746	 0.145481714686905 
1747	 0.141372136704371 
1748	 0.13412759879159 
1749	 0.139234299992935 
1750	 0.144111465762181 
1751	 0.14760252149119 
1752	 0.150949686451337 
1753	 0.150335223028396 
1754	 0.150269560697656 
1755	 0.159326770329907 
1756	 0.162486234713646 
1757	 0.149475375383498 
1758	 0.14777792033629 
1759	 0.141167259720119 
1760	 0.128460466456002 
1761	 0.142162158641373 
1762	 0.156714656808264 
1763	 0.156028859583633 
1764	 0.162409276997981 
1765	 0.163589034507348 
1766	 0.149904965097023 
1767	 0.148240686914191 
1768	 0.150133376174416 
1769	 0.140956534150592 
1770	 0.145465094115611 
1771	 0.146885571646751 
1772	 0.159506028197665 
1773	 0.193617835766925 
1774	 0.201272819346174 
1775	 0.214443661182096 
1776	 0.228908145951638 
1777	 0.223233149996547 
1778	 0.22754227539876 
1779	 0.231509547130317 
1780	 0.228284569605596 
1781	 0.225876416616461 
1782	 0.222313873333092 
1783	 0.182173531971613 
1784	 0.166447478845801 
1785	 0.163192080234719 
1786	 0.142969389350213 
1787	 0.1692995655808 
1788	 0.193608757729613 
1789	 0.203323740964578 
1790	 0.209934542688762 
1791	 0.259878704739945 
1792	 0.279786654384431 
1793	 0.213361948226389 
1794	 0.254061464701033 
1795	 0.392447598783548 
1796	 0.526435771863832 
1797	 0.927959163932483 
1798	 1.26607563682636 
1799	 1.09599949226002 
1800	 1.26387784101146 
1801	 0.781909568474243 
1802	 0.823904780253191 
1803	 0.862891989339275 
1804	 0.855016495771732 
1805	 0.626707119123506 
1806	 0.414386098127411 
1807	 0.360152985513599 
1808	 0.384737334797806 
1809	 0.451339075961116 
1810	 0.610885954835369 
1811	 0.811696846409983 
1812	 1.47348308197037 
1813	 1.56153213146057 
1814	 1.21034187018 
1815	 1.13729927229434 
1816	 0.89448405976256 
1817	 0.668790725505246 
1818	 0.639380665357502 
1819	 0.833578035616698 
1820	 0.876187410477131 
1821	 0.946671019694072 
1822	 0.975048895303691 
1823	 0.844594500279932 
1824	 0.859932387379647 
1825	 0.962006310147556 
1826	 1.08672758209265 
1827	 1.11740138988166 
1828	 1.25688565074507 
1829	 1.22997511857839 
1830	 0.95058641062818 
1831	 0.950278613672822 
1832	 1.13268671754098 
1833	 1.16601479971781 
1834	 1.28572937620651 
1835	 1.3049343107094 
1836	 1.23111759945394 
1837	 0.955108248872192 
1838	 0.934553846642322 
1839	 0.977580858546265 
1840	 0.995214925839763 
1841	 1.20257306908191 
1842	 1.17351586758867 
1843	 0.8467328439537 
1844	 0.807241472216309 
1845	 0.88610488393504 
1846	 0.880424981146314 
1847	 0.841859990379813 
1848	 0.975369847307499 
1849	 0.909852661937853 
1850	 0.543856324565447 
1851	 0.445421582557391 
1852	 0.457848927784506 
1853	 0.457190738131473 
1854	 0.552986087680374 
1855	 0.565982397440152 
1856	 0.556670194513862 
1857	 0.509797490694121 
1858	 0.532735132267328 
1859	 0.536932307782284 
1860	 0.572690633683163 
1861	 0.69145653253259 
1862	 0.742671398381359 
1863	 0.759051049839912 
1864	 0.784247452762285 
1865	 0.788666462836263 
1866	 0.82769893449863 
1867	 0.885603509308249 
1868	 0.960423977859841 
1869	 1.04500649731828 
1870	 1.20040657107192 
1871	 1.23432926527622 
1872	 1.19285262113359 
1873	 1.16477504156449 
1874	 1.14481424753706 
1875	 1.05201251866286 
1876	 0.875621113220602 
1877	 0.789866447624947 
1878	 0.668846190233235 
1879	 0.411995123906203 
1880	 0.386480510388908 
1881	 0.537176658003633 
1882	 0.583891930270089 
1883	 0.742026863566192 
1884	 0.804085268802349 
1885	 0.729534833045248 
1886	 0.696848827335208 
1887	 0.719348805310891 
1888	 0.639242034513337 
1889	 0.588546671694716 
1890	 0.487484665215561 
1891	 0.463021231479512 
1892	 0.429300986072156 
1893	 0.463560587842673 
1894	 0.607313407618423 
1895	 0.694716699882763 
1896	 0.932397127570046 
1897	 1.04197292839347 
1898	 0.991776688490262 
1899	 0.964850011418083 
1900	 0.894552275685667 
1901	 0.723594072952322 
1902	 0.712531351879867 
1903	 0.750995725981116 
1904	 0.759268973447525 
1905	 0.853028756481678 
1906	 0.905860671861096 
1907	 0.916391292515431 
1908	 0.880153017982892 
1909	 0.790654346188406 
1910	 0.778296167337703 
1911	 0.829303363206343 
1912	 0.859305201714149 
1913	 0.990647994662358 
1914	 1.34326440671143 
1915	 1.49105591731024 
1916	 1.78484576111356 
1917	 1.84398175447981 
1918	 1.50213489228042 
1919	 1.48560902157869 
1920	 1.1830628597976 
1921	 1.16845440402209 
1922	 1.10912264736549 
1923	 0.989005313514117 
1924	 0.975016327404203 
1925	 1.04039417671605 
1926	 1.100588534329 
1927	 1.40981705640674 
1928	 1.43740867203241 
1929	 1.29927948174332 
1930	 1.14015497572083 
1931	 0.968845502739464 
1932	 0.963960817264234 
1933	 0.974009388173863 
1934	 1.075978358244 
1935	 1.03084808686549 
1936	 0.846328068396473 
1937	 0.725819048990696 
1938	 0.54446955864186 
1939	 0.500378162191725 
1940	 0.550004282215129 
1941	 0.570690757114707 
1942	 0.508404115741205 
1943	 0.406684441736373 
1944	 0.316165471899734 
1945	 0.322140166028938 
1946	 0.409283419183315 
1947	 0.817461907940464 
1948	 0.986057834713894 
1949	 0.987412062359782 
1950	 1.06894846278803 
1951	 1.12946176642592 
1952	 1.15117100034795 
1953	 1.21300282127253 
1954	 1.26820300643721 
1955	 1.05830844668158 
1956	 0.994507529871432 
1957	 0.942818811337781 
1958	 0.856220868296147 
1959	 0.850429960741891 
1960	 0.965281870539728 
1961	 0.96237548452645 
1962	 0.994123162906357 
1963	 0.95412666746467 
1964	 0.826132388646102 
1965	 0.691532222695815 
1966	 0.672572650474395 
1967	 0.597039954826841 
1968	 0.606976580879511 
1969	 0.599594809877641 
1970	 0.566321977839376 
1971	 0.498259656120989 
1972	 0.513515781738855 
1973	 0.550850607267863 
1974	 0.587627215019553 
1975	 0.711348392404256 
1976	 0.742885471222241 
1977	 0.726059819667599 
1978	 0.663463128149307 
1979	 0.63817592413228 
1980	 0.622394721368204 
1981	 0.533987155112821 
1982	 0.5124650273432 
1983	 0.521677830255641 
1984	 0.536860023351061 
1985	 0.565824275743483 
1986	 0.680204646629231 
1987	 0.669629861622949 
1988	 0.607903255487872 
1989	 0.505753437993334 
1990	 0.401183153163676 
1991	 0.432424307829 
1992	 0.456056097234713 
1993	 0.474133820449868 
1994	 0.446234095765462 
1995	 0.356658468536955 
1996	 0.342685098486412 
1997	 0.350967715329657 
1998	 0.378941033803354 
1999	 0.489166859519492 
2000	 0.538133503538002 
2001	 0.596476085296414 
2002	 0.625333776673291 
2003	 0.593683193961519 
2004	 0.640635587665591 
2005	 0.753583744697366 
2006	 0.784148371539111 
2007	 0.818984665873372 
2008	 0.7930260796066 
2009	 0.752548418592817 
2010	 0.671755360605222 
2011	 0.582248689295961 
2012	 0.466109377300449 
2013	 0.374608407105272 
2014	 0.269100179120892 
2015	 0.218871683371109 
2016	 0.191554247286586 
2017	 0.219866675552091 
2018	 0.291819755532366 
2019	 0.401996654587332 
2020	 0.465402933644338 
2021	 0.552204504169303 
2022	 0.64661511506396 
2023	 0.628372881977823 
2024	 0.616257544398536 
2025	 0.605397430098995 
2026	 0.542942908979528 
2027	 0.441304738770388 
2028	 0.356873879724709 
2029	 0.330220672993004 
2030	 0.304858833848488 
2031	 0.252936381169686 
2032	 0.273585054231044 
2033	 0.290077334170666 
2034	 0.246902445369868 
2035	 0.237430699193862 
2036	 0.249107339726443 
2037	 0.255066570007136 
2038	 0.239993545006605 
2039	 0.265146521991455 
2040	 0.335426039055514 
2041	 0.370564817850261 
2042	 0.410086986814899 
2043	 0.448511122407714 
2044	 0.43608512327163 
2045	 0.415254523187057 
2046	 0.427502709832383 
2047	 0.448379972369428 
2048	 0.449047056668058 
2049	 0.440923785756369 
2050	 0.404945264035028 
2051	 0.400329992323266 
2052	 0.40309161855938 
2053	 0.472921453854262 
2054	 0.466465569822635 
2055	 0.432065240847731 
2056	 0.356165175830142 
2057	 0.314032612563934 
2058	 0.277404904845292 
2059	 0.293195277735472 
2060	 0.318120642167604 
2061	 0.316817887604447 
2062	 0.351234806991853 
2063	 0.332376018470311 
2064	 0.316188707711381 
2065	 0.313797960046469 
2066	 0.316732065411958 
2067	 0.335419896729302 
2068	 0.386695979874293 
2069	 0.421081624961302 
2070	 0.463004575371665 
2071	 0.487171341525023 
2072	 0.474171481120712 
2073	 0.459040323126935 
2074	 0.455373309971878 
2075	 0.41580018741433 
2076	 0.380995026673061 
2077	 0.412082285530742 
2078	 0.420302578097656 
2079	 0.419800833929359 
2080	 0.419160660085189 
2081	 0.411879433325136 
2082	 0.409770732991047 
2083	 0.397189643816606 
2084	 0.386848610532627 
2085	 0.384833984392536 
2086	 0.378057560850287 
2087	 0.375477385077251 
2088	 0.406861472975594 
2089	 0.4575969085588 
2090	 0.479934625424408 
2091	 0.472359140240473 
2092	 0.432301341794184 
2093	 0.387636921818673 
2094	 0.358247229771932 
2095	 0.33763950144066 
2096	 0.357092848929346 
2097	 0.37649546315091 
2098	 0.389546575353306 
2099	 0.394054073837284 
2100	 0.39312109054989 
2101	 0.385601614353594 
2102	 0.360183824399767 
2103	 0.350608236351153 
2104	 0.367070562523024 
2105	 0.361396351781072 
2106	 0.380648537519329 
2107	 0.413006956464329 
2108	 0.378879530927788 
2109	 0.375802160684913 
2110	 0.35926893418616 
2111	 0.311645293910476 
2112	 0.293084148111216 
2113	 0.281856511323045 
2114	 0.284048621485229 
2115	 0.292517984462597 
2116	 0.306709125954849 
2117	 0.336593046448035 
2118	 0.368461268179107 
2119	 0.413653921318716 
2120	 0.439796251982564 
2121	 0.438896775377291 
2122	 0.452487420236469 
2123	 0.415648738591045 
2124	 0.405767626200266 
2125	 0.39463851932199 
2126	 0.355993015576346 
2127	 0.346274329694273 
2128	 0.333076779808513 
2129	 0.332474879372291 
2130	 0.328139975242876 
2131	 0.325280803120269 
2132	 0.304220590039034 
2133	 0.290417665059414 
2134	 0.292069806184204 
2135	 0.284480734117748 
2136	 0.264422308709002 
2137	 0.260348226958718 
2138	 0.256843041344243 
2139	 0.263064990565581 
2140	 0.278956599734191 
2141	 0.275602351816458 
2142	 0.279730626380638 
2143	 0.250088596690905 
2144	 0.233422760456567 
2145	 0.236302848482442 
2146	 0.204312272374276 
2147	 0.215258560548582 
2148	 0.246800831011257 
2149	 0.251285413063028 
2150	 0.268419240115868 
2151	 0.315483412359593 
2152	 0.325811779833034 
2153	 0.314501021510422 
2154	 0.321537860176763 
2155	 0.321784411873124 
2156	 0.327642954771397 
2157	 0.349142488462023 
2158	 0.342490320966235 
2159	 0.331617125737256 
2160	 0.31395125425551 
2161	 0.291506591119853 
2162	 0.284056050434656 
2163	 0.272241242719068 
2164	 0.259073091609031 
2165	 0.243350407304579 
2166	 0.244903120138331 
2167	 0.235116356539739 
2168	 0.24098752969793 
2169	 0.276702039381849 
2170	 0.267707307841018 
2171	 0.269682102042814 
2172	 0.284685611285162 
2173	 0.287665611898359 
2174	 0.279463365761029 
2175	 0.283628205503015 
2176	 0.286370549121236 
2177	 0.297713084312948 
2178	 0.315724118220255 
2179	 0.31389639000349 
2180	 0.340706881912807 
2181	 0.357302394508548 
2182	 0.338921738574761 
2183	 0.338181307412334 
2184	 0.310619376305823 
2185	 0.268358770375934 
2186	 0.242244697805872 
2187	 0.213145197919368 
2188	 0.210451948980569 
2189	 0.203343257718072 
2190	 0.236821421656721 
2191	 0.308835363947298 
2192	 0.355663421520024 
2193	 0.431222435155977 
2194	 0.455606207793003 
2195	 0.437482037431237 
2196	 0.416753150005293 
2197	 0.363116801933532 
2198	 0.305177940621538 
2199	 0.291560328481329 
2200	 0.295003147826385 
2201	 0.339673510754232 
2202	 0.380720017998631 
2203	 0.397736739250492 
2204	 0.394383637061964 
2205	 0.365005238844256 
2206	 0.352852737943363 
2207	 0.352636252674465 
2208	 0.359444814660366 
2209	 0.364692663250669 
2210	 0.370372694164189 
2211	 0.361545315023912 
2212	 0.367538530558836 
2213	 0.354822699324272 
2214	 0.347807105274743 
2215	 0.357798961993978 
2216	 0.366057677296669 
2217	 0.378486391765072 
2218	 0.440898867339676 
2219	 0.442693569602593 
2220	 0.415813452709878 
2221	 0.387304502685796 
2222	 0.322853506833862 
2223	 0.280046385435498 
2224	 0.2401069179192 
2225	 0.255456285721634 
2226	 0.298929426172041 
2227	 0.305190046041681 
2228	 0.341427215401869 
2229	 0.361723169500292 
2230	 0.342853317791361 
2231	 0.340272148844369 
2232	 0.326594536223857 
2233	 0.301099460634115 
2234	 0.281988950246174 
2235	 0.30437643954753 
2236	 0.319729988736707 
2237	 0.301737065363894 
2238	 0.32095585835867 
2239	 0.318330706523886 
2240	 0.270980188172702 
2241	 0.285058728160767 
2242	 0.301353629241118 
2243	 0.319692519778853 
2244	 0.32928173910327 
2245	 0.386787584631879 
2246	 0.374836406851152 
2247	 0.308311170283988 
2248	 0.291141188655686 
2249	 0.27395998101593 
2250	 0.267814827508867 
2251	 0.275095999190385 
2252	 0.280677207678085 
2253	 0.291991919105534 
2254	 0.27894010575238 
2255	 0.298272604835101 
2256	 0.323665615058015 
2257	 0.335869824961424 
2258	 0.315105593494164 
2259	 0.300167429772696 
2260	 0.320368319405793 
2261	 0.323665623127126 
2262	 0.360701167791562 
2263	 0.362953374796342 
2264	 0.282742050611188 
2265	 0.206447840507954 
2266	 0.173725376967001 
2267	 0.141839342398543 
2268	 0.157833431531991 
2269	 0.223468538618804 
2270	 0.248434993277181 
2271	 0.286232988329098 
2272	 0.339493373513731 
2273	 0.375385287672639 
2274	 0.427046020162379 
2275	 0.449043421986205 
2276	 0.46090442436988 
2277	 0.454868793949419 
2278	 0.382943767122195 
2279	 0.34220071731741 
2280	 0.319719337055185 
2281	 0.290537734417525 
2282	 0.250343904408115 
2283	 0.248362834297426 
2284	 0.27034226257012 
2285	 0.273565134029223 
2286	 0.287368402030967 
2287	 0.349621226559709 
2288	 0.342182307086853 
2289	 0.292306712326686 
2290	 0.277020487130275 
2291	 0.270816036464767 
2292	 0.261614239387555 
2293	 0.287826473051568 
2294	 0.36548525774317 
2295	 0.380794389328768 
2296	 0.411506410273488 
2297	 0.484261500662958 
2298	 0.435993767421457 
2299	 0.359530787351623 
2300	 0.323673846339288 
2301	 0.25486712139943 
2302	 0.219868983195066 
2303	 0.247688418767127 
2304	 0.228067945097066 
2305	 0.20000223421345 
2306	 0.196109822795046 
2307	 0.190134446368449 
2308	 0.190390852675353 
2309	 0.193030855785883 
2310	 0.225375067708565 
2311	 0.281831602003361 
2312	 0.321194268312254 
2313	 0.398851134045184 
2314	 0.432546061629698 
2315	 0.420155220573053 
2316	 0.43016845319757 
2317	 0.433852997074738 
2318	 0.420297270058662 
2319	 0.390566791999356 
2320	 0.3827112173731 
2321	 0.384760127824303 
2322	 0.388265751005855 
2323	 0.406753680255229 
2324	 0.418174568413556 
2325	 0.454294002987736 
2326	 0.403785856897523 
2327	 0.293021610530588 
2328	 0.243484157700794 
2329	 0.14377339317639 
2330	 0.112251131320914 
2331	 0.150214480360182 
2332	 0.196542214518486 
2333	 0.31361406535413 
2334	 0.336648309030212 
2335	 0.314954805716524 
2336	 0.313133193292738 
2337	 0.254922111190524 
2338	 0.211569160127923 
2339	 0.271183736916937 
2340	 0.31728062654466 
2341	 0.356721201050672 
2342	 0.439817359615613 
2343	 0.515749403763864 
2344	 0.608783187974687 
2345	 0.672520932690775 
2346	 0.739712102498544 
2347	 0.577079259479618 
2348	 0.421295082965389 
2349	 0.349591635083058 
2350	 0.32235247689652 
2351	 0.377235018386926 
2352	 0.408171558371306 
2353	 0.467913977471966 
2354	 0.515428267154844 
2355	 0.532648815898462 
2356	 0.469114610805227 
2357	 0.331934824540495 
2358	 0.29563766804114 
2359	 0.276754030181498 
2360	 0.450980073041934 
2361	 0.619373404846748 
2362	 0.596469470124917 
2363	 0.621681702225895 
2364	 0.668980567316666 
2365	 0.672416900143576 
2366	 0.704458883991599 
2367	 0.732396580301784 
2368	 0.699923564362812 
2369	 0.593661660961999 
2370	 0.575814177881704 
2371	 0.514936616029866 
2372	 0.38824744949199 
2373	 0.365872513126347 
2374	 0.387216402078392 
2375	 0.413488663546977 
2376	 0.488177639293015 
2377	 0.535849958319776 
2378	 0.592115173775431 
2379	 0.61515117622197 
2380	 0.591995965659313 
2381	 0.674419716123841 
2382	 0.812584665458762 
2383	 0.884426529120235 
2384	 1.14700468174673 
2385	 1.17240171858357 
2386	 0.870095347067461 
2387	 0.830090946284818 
2388	 0.853387426726265 
2389	 0.702367369554384 
2390	 0.497781887466386 
2391	 0.471834741792888 
2392	 0.467656235105736 
2393	 0.500510192699947 
2394	 0.655734796284503 
2395	 0.707460912547999 
2396	 0.717219188869906 
2397	 0.741089936891471 
2398	 0.818730331637279 
2399	 0.752462014305013 
2400	 0.619955056517517 
2401	 0.522503453805472 
2402	 0.272172899705274 
2403	 0.263995164807712 
2404	 0.389243675252139 
2405	 0.472862670231783 
2406	 0.71822787340566 
2407	 0.805852683434871 
2408	 0.788793191797565 
2409	 0.813385787566677 
2410	 0.832949204798876 
2411	 0.77619693622162 
2412	 0.634372573696917 
2413	 0.607356255339314 
2414	 0.538207882624661 
2415	 0.564107920602776 
2416	 0.783812394857361 
2417	 0.831767407236578 
2418	 0.756300193979821 
2419	 0.810554761705122 
2420	 0.977087074692138 
2421	 0.998277772734254 
2422	 1.08078002549701 
2423	 0.999021836074293 
2424	 0.743026895139938 
2425	 0.639291361614778 
2426	 0.535101044826128 
2427	 0.484019724407663 
2428	 0.433695280248394 
2429	 0.394031717456231 
2430	 0.412949225206683 
2431	 0.393593726149988 
2432	 0.329023616252972 
2433	 0.372560990946023 
2434	 0.446547534027624 
2435	 0.58314639670167 
2436	 0.840886140958384 
2437	 0.988332202245224 
2438	 1.11180404905226 
2439	 1.08572083186279 
2440	 0.932617282955751 
2441	 0.921960216001696 
2442	 0.816316240989636 
2443	 0.767028919490701 
2444	 0.993517579374427 
2445	 0.959112992705801 
2446	 0.191083399030418 
2447	 8.60190727861063E-02 
2448	 0.325763170982212 
2449	 0.453738303967387 
2450	 0.468349552249815 
2451	 0.55681383106783 
2452	 0.889776272302312 
2453	 0.99868689874706 
2454	 1.28348316528893 
2455	 1.66689041286444 
2456	 1.32877270026532 
2457	 1.58583105734733 
2458	 1.64895954551878 
2459	 1.10182438956908 
2460	 1.06265651820499 
2461	 1.43273129572195 
2462	 1.87255938734332 
2463	 4.235195408397 
2464	 4.20905815793581 
2465	 1.92916313084637 
2466	 1.31651594165214 
2467	 0.640204106150491 
2468	 0.40030951329706 
2469	 0.421200988873831 
2470	 0.39109429954974 
2471	 0.3146319903711 
2472	 0.298181880430017 
2473	 0.205482485832765 
2474	 0.419668820720137 
2475	 0.991321183789838 
2476	 1.19481228091188 
2477	 1.4183404833671 
2478	 1.44325500849744 
2479	 1.13915889203818 
2480	 1.02199477824827 
2481	 0.789701356063538 
2482	 0.662823178640634 
2483	 0.661908526570682 
2484	 0.797969675796252 
2485	 1.20564607795428 
2486	 1.59067591122913 
2487	 4.75303461742597 
2488	 11.7526607497861 
2489	-23.1445326293088 
2490	 16.2184112288962 
2491	 1.47852439274322 
2492	 0.579054738851653 
2493	 0.189389260179386 
2494	 0.152085427541713 
2495	 0.160271132063783 
2496	 0.183497716592535 
2497	 0.28671777733685 
2498	 0.483238982562184 
2499	 1.1773708729012 
2500	 1.5102290909437 
