Wavelength	000015.asd
350	 0.164114300979136 
351	 0.167052057455182 
352	 0.170445830441079 
353	 0.173881319004772 
354	 0.174419823315243 
355	 0.175519580344895 
356	 0.178972620595168 
357	 0.184184406277509 
358	 0.189386128818029 
359	 0.193459088278551 
360	 0.196753121007361 
361	 0.201414066857052 
362	 0.207915902203744 
363	 0.213473932443513 
364	 0.216802654302943 
365	 0.222302183817552 
366	 0.227831583584457 
367	 0.232394492503829 
368	 0.235976821039844 
369	 0.241022332642736 
370	 0.245943723785604 
371	 0.250902339933794 
372	 0.25703696117224 
373	 0.260865879988718 
374	 0.263824317293 
375	 0.267382434116925 
376	 0.272191228581063 
377	 0.276130283502147 
378	 0.279955967044014 
379	 0.28433390786248 
380	 0.288277359475102 
381	 0.291223333000415 
382	 0.294059349073715 
383	 0.297829290692456 
384	 0.301337447738791 
385	 0.305188261394252 
386	 0.30940245788014 
387	 0.313492426610336 
388	 0.316983703264107 
389	 0.320029233789485 
390	 0.322540116295262 
391	 0.324116351864655 
392	 0.326702991134447 
393	 0.329428715164078 
394	 0.33139981182387 
395	 0.33298261227557 
396	 0.335506848425651 
397	 0.338315798114786 
398	 0.340487133621361 
399	 0.342759725300001 
400	 0.344398582559482 
401	 0.345531936148694 
402	 0.346798222964981 
403	 0.348149011960146 
404	 0.349860436738784 
405	 0.351818107276836 
406	 0.353413467046609 
407	 0.355401596734307 
408	 0.357278327785498 
409	 0.358598941703131 
410	 0.359775498598089 
411	 0.361628739605297 
412	 0.363341389247519 
413	 0.363887167853802 
414	 0.365097703844862 
415	 0.36617312635049 
416	 0.36706871329161 
417	 0.368473371477424 
418	 0.369695390553823 
419	 0.370627550327705 
420	 0.37141113530264 
421	 0.372440459256676 
422	 0.373655375648638 
423	 0.374721169368603 
424	 0.375460515558399 
425	 0.376731245138453 
426	 0.377352586459837 
427	 0.377621791561438 
428	 0.378704907299006 
429	 0.37974387772391 
430	 0.380193350451764 
431	 0.380254892712069 
432	 0.381026753618636 
433	 0.3818137346695 
434	 0.382381428719575 
435	 0.382723067474064 
436	 0.383167305369222 
437	 0.383298191727691 
438	 0.383194897155327 
439	 0.383194615729585 
440	 0.383638653501276 
441	 0.383856059638269 
442	 0.383809632877761 
443	 0.38421363560817 
444	 0.384114974952656 
445	 0.383848444961772 
446	 0.383793144121683 
447	 0.383746710688522 
448	 0.383846279107391 
449	 0.383941472417162 
450	 0.383812846730406 
451	 0.383565840314331 
452	 0.383560919795271 
453	 0.383634963696513 
454	 0.383116942561897 
455	 0.383222733118558 
456	 0.38320410701801 
457	 0.38261481485902 
458	 0.38282473866394 
459	 0.38258017455804 
460	 0.382020458106262 
461	 0.381724080972064 
462	 0.381173363718143 
463	 0.380563596526371 
464	 0.380139466123861 
465	 0.380098339045732 
466	 0.379418402306913 
467	 0.378716953034947 
468	 0.378452107003792 
469	 0.377781314497398 
470	 0.377164674671229 
471	 0.376559393730578 
472	 0.375788202468585 
473	 0.375144470086666 
474	 0.374377839961876 
475	 0.373492494262714 
476	 0.372793159725033 
477	 0.372405851644512 
478	 0.371867811283214 
479	 0.370855136712252 
480	 0.369667046546878 
481	 0.368656714226426 
482	 0.36800537991058 
483	 0.367631024470506 
484	 0.36645707389617 
485	 0.365329775615719 
486	 0.364408092518798 
487	 0.362837594473527 
488	 0.362008306261462 
489	 0.361372238906218 
490	 0.360324299578606 
491	 0.359362268929286 
492	 0.358420196962573 
493	 0.357598658785651 
494	 0.356994445783299 
495	 0.356113699558385 
496	 0.355025868219012 
497	 0.35403604315789 
498	 0.353680276236234 
499	 0.352931842200956 
500	 0.352059522453363 
501	 0.351461562652728 
502	 0.350742143887626 
503	 0.349969100171596 
504	 0.349225399822075 
505	 0.348557710843691 
506	 0.347575401673387 
507	 0.3468847589747 
508	 0.346662230420085 
509	 0.346277732291955 
510	 0.345680680851162 
511	 0.345084365522445 
512	 0.344668920281148 
513	 0.344093211910879 
514	 0.343563405272734 
515	 0.343024461277373 
516	 0.342250450007819 
517	 0.341644168543196 
518	 0.341256735609862 
519	 0.341024090684427 
520	 0.340784338104094 
521	 0.34066987085912 
522	 0.340340349625424 
523	 0.339548325718574 
524	 0.339274363811851 
525	 0.339062587012325 
526	 0.338764095696107 
527	 0.338600687380275 
528	 0.338423454392044 
529	 0.338263734251382 
530	 0.338094875129437 
531	 0.337619488097359 
532	 0.337348019120463 
533	 0.337331149241453 
534	 0.337379275468734 
535	 0.337438004273883 
536	 0.337223974122766 
537	 0.336841620546532 
538	 0.336913462815339 
539	 0.336918682102471 
540	 0.336838651183383 
541	 0.336777793060775 
542	 0.336778763926232 
543	 0.33682390346181 
544	 0.336797240807136 
545	 0.336562651932702 
546	 0.33646287691398 
547	 0.336467039805384 
548	 0.336521923307929 
549	 0.336639543744164 
550	 0.336816204741745 
551	 0.336847466405958 
552	 0.336597919456394 
553	 0.336585183273993 
554	 0.336666442621076 
555	 0.33673393160774 
556	 0.336750591557792 
557	 0.336720823921176 
558	 0.33689537491802 
559	 0.337291217048767 
560	 0.337162205979975 
561	 0.337087363612473 
562	 0.337205426501455 
563	 0.337431999489125 
564	 0.337748359630324 
565	 0.337835314247054 
566	 0.337697163739979 
567	 0.337841959870399 
568	 0.337789661195833 
569	 0.337631055976494 
570	 0.337582067327647 
571	 0.337652238629633 
572	 0.337650498320664 
573	 0.337753839123487 
574	 0.338339260483906 
575	 0.338366284464479 
576	 0.338282750119876 
577	 0.338421443582589 
578	 0.338252780515045 
579	 0.33839755945231 
580	 0.338743083682493 
581	 0.338936482623488 
582	 0.339082868338672 
583	 0.339236104216214 
584	 0.339438448593763 
585	 0.339713875077155 
586	 0.339712020048832 
587	 0.339477416775276 
588	 0.339166593000295 
589	 0.338914693344306 
590	 0.339182506660619 
591	 0.339794931798567 
592	 0.340137304764852 
593	 0.339521682244859 
594	 0.339130967101362 
595	 0.33935745719158 
596	 0.338874034679766 
597	 0.338628365886573 
598	 0.338421901587489 
599	 0.337886676374506 
600	 0.337404862311577 
601	 0.337217444512896 
602	 0.337293716769314 
603	 0.337356801980924 
604	 0.337186440383103 
605	 0.336936788395152 
606	 0.336779714447376 
607	 0.336746219336731 
608	 0.336674624454314 
609	 0.33652899349179 
610	 0.336343819004371 
611	 0.336122461513275 
612	 0.336020619206656 
613	 0.335965220396096 
614	 0.335553225904635 
615	 0.335093769065351 
616	 0.334483089314888 
617	 0.333693407598282 
618	 0.3333627216756 
619	 0.333008789017968 
620	 0.332538315886403 
621	 0.332166266650812 
622	 0.331918359640531 
623	 0.33172675678464 
624	 0.331475585105809 
625	 0.330975809339544 
626	 0.330352146784161 
627	 0.329897601435132 
628	 0.329856981320501 
629	 0.329653573523092 
630	 0.329641851786059 
631	 0.329822056717071 
632	 0.329759903122464 
633	 0.330166243704284 
634	 0.330505294639102 
635	 0.330412879774662 
636	 0.330899640368566 
637	 0.331259467080945 
638	 0.331401626361532 
639	 0.331639666276238 
640	 0.332483162618392 
641	 0.333139912102694 
642	 0.333361028687483 
643	 0.334075527412414 
644	 0.334821397311882 
645	 0.335593069704514 
646	 0.336459621534392 
647	 0.337157286686413 
648	 0.337832180607323 
649	 0.338779967509108 
650	 0.34031188729944 
651	 0.341052867774176 
652	 0.341823581608377 
653	 0.343111524029209 
654	 0.343998979223409 
655	 0.34479175614205 
656	 0.345539052669186 
657	 0.346136004026531 
658	 0.346864498292945 
659	 0.3476095447465 
660	 0.348466543375738 
661	 0.349690336385817 
662	 0.350811754836097 
663	 0.351671519656153 
664	 0.352304804737857 
665	 0.353136074911787 
666	 0.353951197019487 
667	 0.354764788811309 
668	 0.355670202001099 
669	 0.356343451974392 
670	 0.357225513965938 
671	 0.358235246564825 
672	 0.358295536717953 
673	 0.358209237592916 
674	 0.358687027262706 
675	 0.359939092421003 
676	 0.360323808500791 
677	 0.360452119849001 
678	 0.360647398835873 
679	 0.360935249907604 
680	 0.361249976044564 
681	 0.361303393741043 
682	 0.361082684530441 
683	 0.361204871011069 
684	 0.361593599079608 
685	 0.361634074284639 
686	 0.360704352283608 
687	 0.360171508665965 
688	 0.359336868726419 
689	 0.35843419174225 
690	 0.358478282700745 
691	 0.35774704259637 
692	 0.356817517812461 
693	 0.356262511819081 
694	 0.35555795248339 
695	 0.354739349533449 
696	 0.354004117137436 
697	 0.353398744542154 
698	 0.352141120157765 
699	 0.350611299936217 
700	 0.34920412800976 
701	 0.348086167938501 
702	 0.346841004236881 
703	 0.345380150989417 
704	 0.343761061568069 
705	 0.342287434703255 
706	 0.340833429902555 
707	 0.339356334626787 
708	 0.337749520765421 
709	 0.335500165874615 
710	 0.333352113974222 
711	 0.331469792996023 
712	 0.329050208567793 
713	 0.326576980966369 
714	 0.32388225811715 
715	 0.320820016749415 
716	 0.318209812851723 
717	 0.314648916404288 
718	 0.310305877024223 
719	 0.307204186294755 
720	 0.303697529557482 
721	 0.300614615032488 
722	 0.297847273244542 
723	 0.29455409408572 
724	 0.290189407073525 
725	 0.285626217434705 
726	 0.281766247249918 
727	 0.277236623635663 
728	 0.27248109679409 
729	 0.267181917804552 
730	 0.260801647609819 
731	 0.254759453726472 
732	 0.249611608446995 
733	 0.245243524243705 
734	 0.240976189028686 
735	 0.237241459273849 
736	 0.234073143076134 
737	 0.231533487493836 
738	 0.229337426682571 
739	 0.227714554441435 
740	 0.226562041395074 
741	 0.225648077519252 
742	 0.225491194640177 
743	 0.22516054390562 
744	 0.224429897431298 
745	 0.224252958349758 
746	 0.223967367804732 
747	 0.223569401398691 
748	 0.223235414594041 
749	 0.223169704241879 
750	 0.223098952328552 
751	 0.222951395114686 
752	 0.222805031158266 
753	 0.222841087905571 
754	 0.222791353778295 
755	 0.222575731848635 
756	 0.222428103565788 
757	 0.222204282086589 
758	 0.222084810182627 
759	 0.222241628204681 
760	 0.222181696257002 
761	 0.221493090196113 
762	 0.220716181051527 
763	 0.220568040384771 
764	 0.220675000852697 
765	 0.221223493604662 
766	 0.22164945902087 
767	 0.221225864589944 
768	 0.221460858605003 
769	 0.221898564448957 
770	 0.222147914678049 
771	 0.222428767385975 
772	 0.222780256406667 
773	 0.223162552841529 
774	 0.223530467167974 
775	 0.224010553020062 
776	 0.224516850235644 
777	 0.224990342788744 
778	 0.225415884839847 
779	 0.225823218900618 
780	 0.226557455906022 
781	 0.227660313777625 
782	 0.228584476767794 
783	 0.229332589597983 
784	 0.229854903170396 
785	 0.230274924421685 
786	 0.231367698852192 
787	 0.232157537845306 
788	 0.232755654803221 
789	 0.233889505643016 
790	 0.234777886304821 
791	 0.235972063951043 
792	 0.237527813519959 
793	 0.238781388329199 
794	 0.239563436239506 
795	 0.240301394447423 
796	 0.241370107889307 
797	 0.242669675107047 
798	 0.244115663333227 
799	 0.245232135975867 
800	 0.245661211890259 
801	 0.246153796713385 
802	 0.247261157646222 
803	 0.248329740756369 
804	 0.24815709939326 
805	 0.248959536200678 
806	 0.249831206788923 
807	 0.25019160245454 
808	 0.250376698134531 
809	 0.250179146131222 
810	 0.249671383446658 
811	 0.249033650964722 
812	 0.248483901519665 
813	 0.248636913236518 
814	 0.248699659494753 
815	 0.247322119687132 
816	 0.24573094231372 
817	 0.245047203037628 
818	 0.244507561683738 
819	 0.242441136333455 
820	 0.24097918902241 
821	 0.239517206479012 
822	 0.237432268966017 
823	 0.234549485079752 
824	 0.231386891132926 
825	 0.227876607318859 
826	 0.223864808744094 
827	 0.219672352178314 
828	 0.21523497753263 
829	 0.210345751202221 
830	 0.205154687975895 
831	 0.201093380876703 
832	 0.197584030562557 
833	 0.194563331056481 
834	 0.192133118244202 
835	 0.188967731180196 
836	 0.186850597973856 
837	 0.185691391050205 
838	 0.183638787877376 
839	 0.182231982140155 
840	 0.181090809599816 
841	 0.179870154415897 
842	 0.178789903205765 
843	 0.177370391293672 
844	 0.176199845796455 
845	 0.175513451224129 
846	 0.173811428440268 
847	 0.17226542785203 
848	 0.170729843584641 
849	 0.168809012052198 
850	 0.167477045067475 
851	 0.166346044482315 
852	 0.165201998890964 
853	 0.163985992687664 
854	 0.162608789657762 
855	 0.161063511782077 
856	 0.159688030336951 
857	 0.158953854753477 
858	 0.157244720583665 
859	 0.155901298214344 
860	 0.155386581575231 
861	 0.154225792451218 
862	 0.153345825371427 
863	 0.152422153177098 
864	 0.151059065364436 
865	 0.149332090937415 
866	 0.148132024257088 
867	 0.147541834024618 
868	 0.147144360267326 
869	 0.146102976041351 
870	 0.144641942496189 
871	 0.14309054574464 
872	 0.141906224582343 
873	 0.142071569730358 
874	 0.14077714578755 
875	 0.138273622559553 
876	 0.136808274921209 
877	 0.135557566372125 
878	 0.134410430888175 
879	 0.133056345045743 
880	 0.131107827722248 
881	 0.129858025355475 
882	 0.128658975429348 
883	 0.127504255375712 
884	 0.127395914857863 
885	 0.125230702583757 
886	 0.123154680868459 
887	 0.122394670952154 
888	 0.120781913057295 
889	 0.119809284346011 
890	 0.119408299936997 
891	 0.118994540009091 
892	 0.117619343645178 
893	 0.117613682952201 
894	 0.11763304030999 
895	 0.115847283149722 
896	 0.114741951396008 
897	 0.114758900667409 
898	 0.114707802821501 
899	 0.113279408007223 
900	 0.11294929792707 
901	 0.111038232974051 
902	 0.108106802631111 
903	 0.106022993493531 
904	 0.105391231118774 
905	 0.106459340376134 
906	 0.107162237515157 
907	 0.105267863706772 
908	 0.10656255664357 
909	 0.106521180067687 
910	 0.104800690838645 
911	 0.104647872734141 
912	 0.10335681260246 
913	 0.100745201387067 
914	 9.79191233571221E-02 
915	 9.66481822099556E-02 
916	 9.71089014353715E-02 
917	 9.55691167344397E-02 
918	 9.27902917702943E-02 
919	 9.24270597482103E-02 
920	 8.91545699046389E-02 
921	 8.63077715998948E-02 
922	 8.49095951781689E-02 
923	 8.31852878703256E-02 
924	 8.21123973893493E-02 
925	 8.24402131472267E-02 
926	 8.37593657175803E-02 
927	 8.40053438710227E-02 
928	 8.56207847304248E-02 
929	 8.51016294622262E-02 
930	 0.081108567706499 
931	 8.15561273344945E-02 
932	 8.49273254888013E-02 
933	 9.43981463808224E-02 
934	 0.106048334601377 
935	 0.103657079622083 
936	 8.32707921261912E-02 
937	 7.74088282083144E-02 
938	 8.63628521546738E-02 
939	 7.61199004142342E-02 
940	 7.74582182854931E-02 
941	 8.22973980766395E-02 
942	 8.41124730744864E-02 
943	 8.47426662674181E-02 
944	 8.17771879679477E-02 
945	 8.68608017523131E-02 
946	 0.099560552778323 
947	 0.100384426104194 
948	 8.09704567339301E-02 
949	 7.45687748274906E-02 
950	 8.01780187959803E-02 
951	 6.32876095282562E-02 
952	 6.24180273841029E-02 
953	 7.58763559076317E-02 
954	 8.77890144611542E-02 
955	 7.96570488336062E-02 
956	 7.65307748465222E-02 
957	 7.87284679302448E-02 
958	 7.78718045233131E-02 
959	 6.53945619310432E-02 
960	 0.059651321647318 
961	 6.71943745549973E-02 
962	 7.11076070565716E-02 
963	 5.20244309687616E-02 
964	 5.73222974395067E-02 
965	 6.42779587067359E-02 
966	 6.61919138272406E-02 
967	 6.72434731467118E-02 
968	 5.78177632984879E-02 
969	 5.41797155591865E-02 
970	 5.58532676492628E-02 
971	 5.37691716833768E-02 
972	 5.06423145744499E-02 
973	 5.09427487060618E-02 
974	 5.32109014171108E-02 
975	 5.35904597497922E-02 
976	 5.38196664201914E-02 
977	 5.64213265926065E-02 
978	 5.47065817770925E-02 
979	 4.50977689728536E-02 
980	 4.43515153705811E-02 
981	 4.64596745564451E-02 
982	 4.72508276690922E-02 
983	 4.59027809994362E-02 
984	 0.047669629010959 
985	 5.09703130798305E-02 
986	 5.33574916662877E-02 
987	 0.052761536355244 
988	 4.83910335407684E-02 
989	 0.048077741407967 
990	 4.64626001700098E-02 
991	 4.22114215821767E-02 
992	 4.33867540451028E-02 
993	 4.69057472369201E-02 
994	 0.049128853473691 
995	 4.86231614574254E-02 
996	 4.71418635491971E-02 
997	 4.82250351476167E-02 
998	 4.57108442913285E-02 
999	 4.16414735670805E-02 
1000	 4.38360675298264E-02 
1001	 0.039911059496232 
1002	 3.95217317833586E-02 
1003	 3.57925761819694E-02 
1004	 3.37902913466658E-02 
1005	 3.04281051596544E-02 
1006	 0.029141981647721 
1007	 2.82595100796662E-02 
1008	 2.79020627747406E-02 
1009	 2.86610634120753E-02 
1010	 2.92883360526838E-02 
1011	 3.12931288671701E-02 
1012	 3.56957692404593E-02 
1013	 3.50132661981806E-02 
1014	 3.41964753031763E-02 
1015	 3.28593440178546E-02 
1016	 3.09694765226127E-02 
1017	 3.01329691970238E-02 
1018	 3.18191184862971E-02 
1019	 3.07107005269888E-02 
1020	 2.62156712022477E-02 
1021	 2.58829482857993E-02 
1022	 2.87703054616666E-02 
1023	 2.94012761580526E-02 
1024	 3.05430653391366E-02 
1025	 3.18567434011127E-02 
1026	 3.11467316117107E-02 
1027	 2.88581365566354E-02 
1028	 2.81982696296507E-02 
1029	 2.78775697575366E-02 
1030	 2.81397848998658E-02 
1031	 2.99366607901168E-02 
1032	 3.14179775083182E-02 
1033	 3.43905415993016E-02 
1034	 3.58718573282054E-02 
1035	 0.037115165538615 
1036	 0.037217628987651 
1037	 3.65639802444512E-02 
1038	 3.51853942568921E-02 
1039	 3.35113001409247E-02 
1040	 3.29885731756152E-02 
1041	 3.35127992755749E-02 
1042	 3.46977847707329E-02 
1043	 3.57726878669324E-02 
1044	 3.54708763839209E-02 
1045	 3.41093952903866E-02 
1046	 3.37812501306823E-02 
1047	 3.68919630475292E-02 
1048	 3.81618607676047E-02 
1049	 3.84000610623044E-02 
1050	 3.84988874751627E-02 
1051	 3.90430099004617E-02 
1052	 3.81444786327114E-02 
1053	 3.74644973735611E-02 
1054	 3.77269007884952E-02 
1055	 3.87332938297215E-02 
1056	 3.60700377481159E-02 
1057	 3.51179845579695E-02 
1058	 3.91470985806818E-02 
1059	 4.04303886641903E-02 
1060	 4.19906388243505E-02 
1061	 4.36210028768124E-02 
1062	 4.31180962963047E-02 
1063	 4.31975941959947E-02 
1064	 4.30337970617901E-02 
1065	 4.31525902933916E-02 
1066	 4.39820089999769E-02 
1067	 4.40007563493784E-02 
1068	 4.20108594079071E-02 
1069	 4.20328734567045E-02 
1070	 4.13993763011226E-02 
1071	 3.98097448857148E-02 
1072	 4.07076386363835E-02 
1073	 0.039664183736963 
1074	 3.95276317445375E-02 
1075	 4.08523041414287E-02 
1076	 0.039035732647182 
1077	 0.040293099837259 
1078	 0.042404566506161 
1079	 4.20319787508121E-02 
1080	 3.97349292699085E-02 
1081	 0.040343279958053 
1082	 4.04040193565394E-02 
1083	 3.84281494602381E-02 
1084	 3.86162033583951E-02 
1085	 3.97449470967132E-02 
1086	 4.10041979948857E-02 
1087	 4.15052635589188E-02 
1088	 4.22072991476726E-02 
1089	 4.22831280598714E-02 
1090	 4.00483937721691E-02 
1091	 3.83849570752592E-02 
1092	 3.73086718282899E-02 
1093	 3.64198428943709E-02 
1094	 3.53671443238056E-02 
1095	 0.034729541739427 
1096	 0.034292886203404 
1097	 3.44831211333241E-02 
1098	 3.35375846598122E-02 
1099	 3.23385960838983E-02 
1100	 3.32426567049911E-02 
1101	 3.34904990146363E-02 
1102	 3.16518826920686E-02 
1103	 3.12703835571878E-02 
1104	 2.83894557885937E-02 
1105	 0.023953011288765 
1106	 1.96102956385915E-02 
1107	 1.75525352037692E-02 
1108	 1.89333182397699E-02 
1109	 0.016321508269207 
1110	 0.015597387507611 
1111	 1.96000480391288E-02 
1112	 2.23451315958295E-02 
1113	 2.27648493571137E-02 
1114	 2.92504884995076E-02 
1115	 3.65098128526524E-02 
1116	 3.78636372397747E-02 
1117	 2.97315863465186E-02 
1118	 4.20805740204353E-03 
1119	-2.59725321304793E-02 
1120	-4.93571709237068E-02 
1121	-6.75954734514555E-02 
1122	-6.39452204411554E-02 
1123	-7.77211653877002E-02 
1124	-0.116355296702769 
1125	-0.150368529128994 
1126	-0.171198573352863 
1127	-0.197932213745655 
1128	-0.206417957939798 
1129	-0.20707356031054 
1130	-0.211609941061887 
1131	-0.215658211885868 
1132	-0.189826298633515 
1133	-0.173461291666379 
1134	-0.175355651245776 
1135	-0.169978187798134 
1136	-0.155535018437377 
1137	-0.125326204518229 
1138	-8.10306198208888E-02 
1139	-5.27990806675276E-02 
1140	-3.14534215419603E-02 
1141	-1.70603271468143E-02 
1142	-1.65402721038649E-02 
1143	-3.86590549718163E-02 
1144	-3.97148384607368E-02 
1145	-4.52527403480666E-02 
1146	-4.14426183745734E-02 
1147	-0.014305172442202 
1148	-0.010058695062748 
1149	-0.022060788114764 
1150	-3.40404639433159E-02 
1151	-4.92459617698135E-02 
1152	-4.98073720960266E-02 
1153	-4.14031727502536E-02 
1154	-3.01571886737623E-02 
1155	-1.84766267240527E-02 
1156	-2.37875661843702E-03 
1157	 1.34927550955445E-02 
1158	 2.20605939548566E-02 
1159	 2.32671157520401E-02 
1160	 0.017423442974026 
1161	 1.66307770745788E-02 
1162	 1.32853215949281E-02 
1163	 0.013232167860973 
1164	 1.45551878974265E-02 
1165	 2.00983826915843E-02 
1166	 2.17561406819202E-02 
1167	 0.021650977952312 
1168	 2.49957594496098E-02 
1169	 2.42767583357667E-02 
1170	 2.23492637227082E-02 
1171	 2.26801191359068E-02 
1172	 2.28404404568502E-02 
1173	 2.28706094992976E-02 
1174	 2.50233914075055E-02 
1175	 2.79065054777287E-02 
1176	 2.88182293580101E-02 
1177	 2.91381542602836E-02 
1178	 2.86404359494275E-02 
1179	 2.62230452023433E-02 
1180	 2.52177806193767E-02 
1181	 2.19821703191136E-02 
1182	 2.20872605747291E-02 
1183	 2.50242138893448E-02 
1184	 2.78199423223559E-02 
1185	 2.92177940083621E-02 
1186	 3.47379546997331E-02 
1187	 3.77252754902733E-02 
1188	 3.61453920781037E-02 
1189	 3.53858813923679E-02 
1190	 3.50063702343937E-02 
1191	 3.28606188548769E-02 
1192	 3.24538985740113E-02 
1193	 3.24407931088634E-02 
1194	 3.36133250047896E-02 
1195	 0.032807435904992 
1196	 3.21348318761997E-02 
1197	 3.06989713537874E-02 
1198	 2.73458238622094E-02 
1199	 2.52932519349746E-02 
1200	 2.33732630209649E-02 
1201	 2.17136786044399E-02 
1202	 1.97358216777472E-02 
1203	 1.94783668500483E-02 
1204	 0.020309848103815 
1205	 2.06881240166132E-02 
1206	 2.22247520829028E-02 
1207	 2.43335178274041E-02 
1208	 2.74363920470299E-02 
1209	 2.95523327065286E-02 
1210	 2.93728761672826E-02 
1211	 0.027442992698681 
1212	 2.73291853825008E-02 
1213	 2.51421514972935E-02 
1214	 2.54929304916842E-02 
1215	 2.91508305056202E-02 
1216	 3.02074007602562E-02 
1217	 0.030391865505501 
1218	 3.09464912081922E-02 
1219	 3.11824785297107E-02 
1220	 0.031333465779209 
1221	 3.20125885169231E-02 
1222	 3.10144727370789E-02 
1223	 3.11405924899432E-02 
1224	 3.22268988204859E-02 
1225	 3.25784700252097E-02 
1226	 3.33624861611223E-02 
1227	 3.33441910192569E-02 
1228	 3.30337197549596E-02 
1229	 3.31959497150562E-02 
1230	 3.36475444673089E-02 
1231	 3.41503602327281E-02 
1232	 3.51631451585513E-02 
1233	 3.54179530619182E-02 
1234	 0.035021620316325 
1235	 3.55038293177081E-02 
1236	 0.036758047373199 
1237	 3.61305545241811E-02 
1238	 3.54809768014517E-02 
1239	 3.43555180966995E-02 
1240	 3.01782466876358E-02 
1241	 2.84759630490915E-02 
1242	 2.81495708692206E-02 
1243	 2.80180859079428E-02 
1244	 2.76757563103748E-02 
1245	 2.93587968556556E-02 
1246	 2.95985112623017E-02 
1247	 2.89606068476485E-02 
1248	 2.87995965236375E-02 
1249	 2.78968262612454E-02 
1250	 2.84620238094156E-02 
1251	 3.00885900958311E-02 
1252	 3.15829132268773E-02 
1253	 3.45306374111557E-02 
1254	 3.58304713575527E-02 
1255	 3.60923245578571E-02 
1256	 3.63019545774067E-02 
1257	 3.58826365125636E-02 
1258	 3.52564369985395E-02 
1259	 3.47876087768952E-02 
1260	 3.38039793891055E-02 
1261	 3.17381296057968E-02 
1262	 3.01534159536155E-02 
1263	 0.029326200797005 
1264	 2.61157834647491E-02 
1265	 2.32935219341111E-02 
1266	 2.32834285167688E-02 
1267	 2.45909004005154E-02 
1268	 2.70314934938336E-02 
1269	 2.78872625280177E-02 
1270	 2.93407525044091E-02 
1271	 2.98923472485266E-02 
1272	 2.85860999366628E-02 
1273	 2.86120897515566E-02 
1274	 2.94350115360974E-02 
1275	 3.02296346213232E-02 
1276	 3.07921513284209E-02 
1277	 3.17451854988493E-02 
1278	 3.38899591129697E-02 
1279	 3.49208097310732E-02 
1280	 0.035535514019896 
1281	 3.56107230609875E-02 
1282	 3.45211678018109E-02 
1283	 3.41164765209608E-02 
1284	 3.29244970601388E-02 
1285	 3.42764897080701E-02 
1286	 3.27204428639969E-02 
1287	 0.031620912669058 
1288	 3.13611742649913E-02 
1289	 2.90756379263042E-02 
1290	 2.91567311578083E-02 
1291	 3.17196627348091E-02 
1292	 3.23851212827181E-02 
1293	 3.29806740332812E-02 
1294	 3.31109993644419E-02 
1295	 3.29354672862939E-02 
1296	 3.23551347132177E-02 
1297	 3.06262885350389E-02 
1298	 2.94891375776047E-02 
1299	 2.75168266637494E-02 
1300	 2.68798196403129E-02 
1301	 2.83854820542394E-02 
1302	 2.83806788457284E-02 
1303	 2.75880320003954E-02 
1304	 2.78741816251682E-02 
1305	 2.68594304531656E-02 
1306	 2.74093491240981E-02 
1307	 3.02656021747834E-02 
1308	 3.38017232778543E-02 
1309	 3.58206206630436E-02 
1310	 3.86052103262773E-02 
1311	 4.06168774693363E-02 
1312	 4.20440023281347E-02 
1313	 4.10943951189921E-02 
1314	 3.74078718249595E-02 
1315	 3.64350839912519E-02 
1316	 3.49930946571948E-02 
1317	 3.22739358903567E-02 
1318	 2.93372304351251E-02 
1319	 2.92479155437099E-02 
1320	 2.70048490848536E-02 
1321	 0.028545467122968 
1322	 4.05787610444217E-02 
1323	 4.31038520680255E-02 
1324	 3.99058630704752E-02 
1325	 3.87865976367374E-02 
1326	 3.23367614694096E-02 
1327	 2.80466160798666E-02 
1328	 2.72255815014933E-02 
1329	 2.48647954567576E-02 
1330	 1.93148049786669E-02 
1331	 1.56642778400141E-02 
1332	 1.56156944933485E-02 
1333	 1.13126985821304E-02 
1334	 1.10420243668381E-02 
1335	 1.53722545934084E-02 
1336	 1.34666937427536E-02 
1337	 9.65056531070528E-03 
1338	 7.84537094777547E-03 
1339	 3.0795344530118E-03 
1340	-1.11903533980005E-05 
1341	-9.56325922617275E-04 
1342	-3.06556569861149E-03 
1343	-4.89297255417106E-03 
1344	-1.13062899462329E-02 
1345	-1.92300273393655E-02 
1346	-4.18346285984742E-02 
1347	-0.103532137947601 
1348	-0.164695250128766 
1349	-0.247594434523928 
1350	-0.329490463075852 
1351	-0.356979089078062 
1352	-0.413863096686908 
1353	-0.422194578119654 
1354	-0.393844759561427 
1355	 0.091204882103877 
1356	 0.36234577674992 
1357	 4.38292758729126E-02 
1358	-0.264800885102181 
1359	-10.6342299775896 
1360	 3.79428591661865 
1361	 1.62578948992535 
1362	 0.810540596142019 
1363	 0.896129016564632 
1364	 1.21900910946926 
1365	 1.51801279546754 
1366	 2.85625011615353 
1367	 2.72817373082162 
1368	 1.99597641399727 
1369	 1.77042687908322 
1370	 1.18887233394129 
1371	 1.19515883120117 
1372	 1.88918936314743 
1373	 2.63411058558589 
1374	 26.2293845592634 
1375	-6.47926849701244 
1376	-6.85941857472686 
1377	-18.0927293378575 
1378	 3.22395250168577 
1379	 2.18420309222984 
1380	 0.690860547340473 
1381	 0.53691290027381 
1382	 2.35350616255455 
1383	 3.94377664194026 
1384	 3.94463359826173 
1385	 5.94536493388621 
1386	 5.36526772618213 
1387	 2.16905644678909 
1388	-8.08793029014273 
1389	-5.01736615591774 
1390	-6.22378900609529 
1391	-10.2304222340115 
1392	 20.2635190161622 
1393	 1.9409288130021 
1394	 1.57729746738372 
1395	 1.59825041664653 
1396	 1.67538336722534 
1397	 2.37412264340068 
1398	 4.09763954793055 
1399	-3.40372904898812 
1400	-2.08880451363812 
1401	-1.36385193766953 
1402	-22.1522308598011 
1403	 1.1317585178567 
1404	 1.05630990901173 
1405	 1.42355644942753 
1406	 1.58120027992299 
1407	 2.99905517437614 
1408	 3.50055463803359 
1409	 1.70511074741368 
1410	 1.13148094894011 
1411	 1.30377397486679E-02 
1412	-1.89420711067556E-02 
1413	 0.724926788365928 
1414	 1.24003949110195 
1415	 2.54814483529543 
1416	 3.0658365962488 
1417	 3.46194693673639 
1418	 3.92176278803048 
1419	 3.36593229178996 
1420	 2.2400491773268 
1421	 2.24236144877312 
1422	 2.60903147076771 
1423	 4.10829315502411 
1424	-10.3443290764991 
1425	-9.34134716341882 
1426	-345.054110224034 
1427	-33.6040931739734 
1428	 8.30287772039265 
1429	 23.218043468639 
1430	-2.47975029044511 
1431	-1.8215915927708 
1432	-1.56391103861159 
1433	-1.68511547976877 
1434	-2.95053405688711 
1435	-3.82233244376347 
1436	-7.12856144874653 
1437	-7.27337699529462 
1438	-4.10897400143338 
1439	-3.51928694510142 
1440	-2.66806532018513 
1441	-2.5545432211717 
1442	-3.66663809806823 
1443	-3.45425841021572 
1444	-1.99311749138683 
1445	-1.84610292705625 
1446	-1.95223287212504 
1447	-1.68335408888204 
1448	-3.32115957358155 
1449	-2.6251351563057 
1450	-1.4825983899467 
1451	-1.1685554554852 
1452	-1.02350644522844 
1453	-0.835162603408006 
1454	-0.538666021046529 
1455	-0.445184222200999 
1456	-0.392952184896917 
1457	-0.286240367157348 
1458	-0.206261339462354 
1459	-0.143280368882053 
1460	-7.18273009462316E-02 
1461	 5.13628707936083E-02 
1462	 6.06502172678475E-02 
1463	 3.39369480802564E-02 
1464	-1.17200810677547E-02 
1465	-0.167699838448552 
1466	-0.27717555986369 
1467	-0.484149625637177 
1468	-0.560575708756819 
1469	-0.487377891611486 
1470	-0.470379798840692 
1471	-0.348833876751279 
1472	-0.293875845855537 
1473	-0.252534103707556 
1474	-0.249809186569161 
1475	-0.282506663788594 
1476	-0.258529246036882 
1477	-0.252532266776969 
1478	-0.223300681377078 
1479	-0.118321980328703 
1480	-9.04483649484515E-02 
1481	-0.102071232132174 
1482	-0.101866555870905 
1483	-0.136684220265552 
1484	-0.129055236293405 
1485	-0.109861907198505 
1486	-8.59754486597029E-02 
1487	-4.35742565046702E-02 
1488	-3.08560443816912E-02 
1489	-2.69405211194735E-02 
1490	-2.17291153777324E-02 
1491	-3.73652272032015E-02 
1492	-2.63419541233621E-02 
1493	 1.07693694480649E-02 
1494	 0.018897973892698 
1495	 2.18787817723916E-02 
1496	 2.48672099635352E-02 
1497	 1.52046007756691E-02 
1498	 9.78351262837433E-03 
1499	 1.02732305208526E-02 
1500	 1.00860758987405E-02 
1501	 5.6335182948909E-03 
1502	-3.51652683299624E-03 
1503	-1.85623888226734E-03 
1504	 3.22416028949847E-03 
1505	 7.64959341776809E-03 
1506	 1.69811177593295E-02 
1507	 2.11715395722275E-02 
1508	 2.22571632610354E-02 
1509	 2.59596374593065E-02 
1510	 3.09331453352518E-02 
1511	 3.28909937616746E-02 
1512	 3.41979708587776E-02 
1513	 3.60787364734548E-02 
1514	 3.74300166756502E-02 
1515	 3.65883666523474E-02 
1516	 3.63846274412226E-02 
1517	 3.36760525025447E-02 
1518	 2.65849097536134E-02 
1519	 0.024221150345954 
1520	 2.24753973333835E-02 
1521	 2.21406657003338E-02 
1522	 2.46764896287798E-02 
1523	 2.45728282718037E-02 
1524	 0.021347638524074 
1525	 0.024784501999545 
1526	 0.032628200290329 
1527	 3.58335938012886E-02 
1528	 4.38097941286262E-02 
1529	 0.044496978035807 
1530	 3.65767811896974E-02 
1531	 3.33010713743972E-02 
1532	 2.92833602486854E-02 
1533	 2.71625450885814E-02 
1534	 2.63958325989256E-02 
1535	 2.62098340140511E-02 
1536	 0.028006050135304 
1537	 2.79160988482538E-02 
1538	 2.74317069647826E-02 
1539	 2.72356395521124E-02 
1540	 2.51758853280119E-02 
1541	 2.52230287325367E-02 
1542	 2.62998623762066E-02 
1543	 2.81983242645648E-02 
1544	 3.21375152113195E-02 
1545	 3.45512749547058E-02 
1546	 3.80053843974334E-02 
1547	 3.92654476542543E-02 
1548	 3.97889445736552E-02 
1549	 3.85660170038817E-02 
1550	 3.33497410941099E-02 
1551	 3.14558751589154E-02 
1552	 2.97280889118192E-02 
1553	 2.80915772104904E-02 
1554	 2.77073566669887E-02 
1555	 2.89271613776658E-02 
1556	 3.15438964381439E-02 
1557	 3.28029338053228E-02 
1558	 3.48799969561334E-02 
1559	 3.69242069815977E-02 
1560	 3.92263502832068E-02 
1561	 3.91343692888816E-02 
1562	 3.73808714622377E-02 
1563	 3.72265627341836E-02 
1564	 3.63372925332523E-02 
1565	 3.20694200330231E-02 
1566	 3.03058681881977E-02 
1567	 3.03379370484147E-02 
1568	 2.90687446936733E-02 
1569	 2.87384293099658E-02 
1570	 3.00265586592107E-02 
1571	 2.93946641871328E-02 
1572	 2.77939208506209E-02 
1573	 2.77265998146714E-02 
1574	 2.76536595170514E-02 
1575	 2.82995704157342E-02 
1576	 2.93552834217317E-02 
1577	 2.93092222841847E-02 
1578	 0.028766296260997 
1579	 2.77998246925077E-02 
1580	 2.69474666557704E-02 
1581	 0.027964712629067 
1582	 3.01838455578363E-02 
1583	 3.26122479804656E-02 
1584	 3.10632398044725E-02 
1585	 2.71803982508409E-02 
1586	 2.70176624859797E-02 
1587	 2.57684184575729E-02 
1588	 2.57995377811905E-02 
1589	 3.01449166855968E-02 
1590	 3.11806166880793E-02 
1591	 2.90919903880059E-02 
1592	 2.88827665466858E-02 
1593	 2.91435644986261E-02 
1594	 3.05628007232421E-02 
1595	 0.032820360839893 
1596	 3.43835068713879E-02 
1597	 0.038348947843368 
1598	 3.73515121906335E-02 
1599	 3.20034028006549E-02 
1600	 2.99312550841795E-02 
1601	 0.025549486574943 
1602	 2.68761332178268E-02 
1603	 3.47789096726246E-02 
1604	 0.036536881241901 
1605	 3.84489453967124E-02 
1606	 3.71335782270712E-02 
1607	 3.01419839459418E-02 
1608	 2.67680068673222E-02 
1609	 2.39800871975715E-02 
1610	 2.34546158058126E-02 
1611	 2.48277805432462E-02 
1612	 0.025081518526547 
1613	 2.47805210138742E-02 
1614	 2.69522974232556E-02 
1615	 3.07064946381993E-02 
1616	 3.15426419484699E-02 
1617	 3.37465275018374E-02 
1618	 3.54681090171508E-02 
1619	 3.40632883037388E-02 
1620	 3.48419245532183E-02 
1621	 3.71966573984438E-02 
1622	 3.92902651703577E-02 
1623	 4.31609778942968E-02 
1624	 4.18670421892298E-02 
1625	 3.92743297938631E-02 
1626	 3.72439581019006E-02 
1627	 2.94925945577875E-02 
1628	 2.70958302843548E-02 
1629	 2.82583591116548E-02 
1630	 2.89171909478587E-02 
1631	 0.032466197501564 
1632	 3.16006417792946E-02 
1633	 2.89911482821339E-02 
1634	 2.79679601736275E-02 
1635	 2.23110632984055E-02 
1636	 2.39802754274385E-02 
1637	 3.34129528951384E-02 
1638	 3.59484287771682E-02 
1639	 3.88660589562523E-02 
1640	 3.80142640560108E-02 
1641	 2.99928414288473E-02 
1642	 2.84342985331211E-02 
1643	 0.029813174143473 
1644	 3.05712083408472E-02 
1645	 3.31697498332095E-02 
1646	 3.47861731246228E-02 
1647	 3.51190398695511E-02 
1648	 0.034507669012949 
1649	 3.53278122327652E-02 
1650	 3.55693048436676E-02 
1651	 3.40204455031237E-02 
1652	 3.33452277639946E-02 
1653	 3.21317174781771E-02 
1654	 3.15227778509606E-02 
1655	 3.01759539689805E-02 
1656	 3.17195542284427E-02 
1657	 3.68633962163817E-02 
1658	 3.80459637357519E-02 
1659	 3.98101182465224E-02 
1660	 3.83678444025498E-02 
1661	 3.19552654230059E-02 
1662	 2.98738897215333E-02 
1663	 2.95574982796659E-02 
1664	 2.88215153556887E-02 
1665	 2.91973846614965E-02 
1666	 3.11921307273973E-02 
1667	 3.14224739858998E-02 
1668	 2.82925370437457E-02 
1669	 2.55646155823129E-02 
1670	 2.65268927017265E-02 
1671	 2.80204257671247E-02 
1672	 3.23704329652428E-02 
1673	 4.02952785948602E-02 
1674	 4.15514429862318E-02 
1675	 3.58987378965005E-02 
1676	 0.031332976459292 
1677	 0.027890678715929 
1678	 2.51792898825119E-02 
1679	 2.91318439146494E-02 
1680	 3.32418022776079E-02 
1681	 3.37260992522515E-02 
1682	 3.73530873032388E-02 
1683	 3.53747012686512E-02 
1684	 3.37918751863995E-02 
1685	 3.76753092560309E-02 
1686	 0.035530446415675 
1687	 3.93550670914848E-02 
1688	 4.36385809448722E-02 
1689	 4.12950708272053E-02 
1690	 0.046365026711618 
1691	 4.48837162818847E-02 
1692	 3.91732781041986E-02 
1693	 4.26024435762259E-02 
1694	 4.54932743788687E-02 
1695	 4.70439006548118E-02 
1696	 4.93140793296981E-02 
1697	 5.05375333488301E-02 
1698	 0.045554530478939 
1699	 4.05110570097221E-02 
1700	 0.042581141393849 
1701	 0.040191252137641 
1702	 3.99790493391253E-02 
1703	 0.045178005411078 
1704	 4.23584972300652E-02 
1705	 4.20761774352424E-02 
1706	 3.94332702551358E-02 
1707	 3.28300963084806E-02 
1708	 3.41194766867438E-02 
1709	 3.08582378961625E-02 
1710	 3.34937306591293E-02 
1711	 3.67286666165882E-02 
1712	 3.21309479089193E-02 
1713	 0.032168183772576 
1714	 2.57554325543733E-02 
1715	 1.95906417989958E-02 
1716	 2.28068610368595E-02 
1717	 2.51579191915426E-02 
1718	 3.58932755527418E-02 
1719	 4.61416294663826E-02 
1720	 4.31377220968532E-02 
1721	 4.48550025942531E-02 
1722	 3.96892883902045E-02 
1723	 3.77428323499065E-02 
1724	 4.01851341078161E-02 
1725	 4.03620753138815E-02 
1726	 3.98524302289269E-02 
1727	 3.73170883261139E-02 
1728	 0.034914996351886 
1729	 3.52555088043996E-02 
1730	 3.14263572256674E-02 
1731	 3.02181604184125E-02 
1732	 3.71566399960929E-02 
1733	 4.24308088663466E-02 
1734	 4.78337963896868E-02 
1735	 5.20339389265005E-02 
1736	 5.54942647222202E-02 
1737	 5.18743678350269E-02 
1738	 4.31079574544375E-02 
1739	 0.035023930251072 
1740	 2.63718710125529E-02 
1741	 2.70058171191758E-02 
1742	 2.39080167788907E-02 
1743	 2.40032793210459E-02 
1744	 3.43034108997325E-02 
1745	 3.73410979002806E-02 
1746	 4.22894206384493E-02 
1747	 4.92035246323355E-02 
1748	 4.26014782080655E-02 
1749	 3.76207014972822E-02 
1750	 3.76417809595986E-02 
1751	 0.029487348612582 
1752	 2.65884035182255E-02 
1753	 3.35842212541736E-02 
1754	 3.38667900452691E-02 
1755	 3.30431438224624E-02 
1756	 3.80926578336771E-02 
1757	 3.39335921233728E-02 
1758	 2.82045969275284E-02 
1759	 2.62494198033332E-02 
1760	 1.78958127491516E-02 
1761	 9.6215812631018E-03 
1762	 7.94788820531079E-03 
1763	 9.88727215853558E-03 
1764	 2.71656516202479E-03 
1765	 6.53760931475147E-03 
1766	 7.48225721141048E-03 
1767	-4.74478328260202E-03 
1768	 1.93923984777096E-04 
1769	-4.58114593275958E-03 
1770	-1.60354189500401E-02 
1771	-1.75495962050106E-02 
1772	-9.72872095595797E-03 
1773	-1.96747658475003E-03 
1774	-1.04812223647626E-02 
1775	 1.2293152527695E-03 
1776	-5.2256754215715E-03 
1777	-0.039707306892849 
1778	-3.78184636415122E-02 
1779	-4.09921434541337E-02 
1780	-2.47872405072226E-02 
1781	-1.55313698602812E-02 
1782	-6.70743269186857E-02 
1783	-0.065144852347887 
1784	-9.94055264695191E-03 
1785	 4.5841034717857E-03 
1786	 6.58951052936315E-02 
1787	 0.113512952923548 
1788	 6.66739713317566E-02 
1789	 4.99950594509576E-02 
1790	 3.70024588242749E-02 
1791	-7.92259746782871E-02 
1792	-0.160446084159297 
1793	-0.189016383482134 
1794	-0.200728928072339 
1795	-0.10824073892639 
1796	-2.19067208621938E-02 
1797	-1.48775932198864E-02 
1798	-8.64849006925357E-02 
1799	-3.59373270620714E-03 
1800	 4.87961733007559E-02 
1801	 0.882919813248979 
1802	 0.881444163801886 
1803	 0.962043106833021 
1804	 0.974670789624594 
1805	 0.963558595150099 
1806	 0.943932616158334 
1807	 0.919861693470259 
1808	 0.904181555612674 
1809	 0.825399712369105 
1810	 0.663501108829806 
1811	 0.590325032592633 
1812	 0.464066251344072 
1813	 0.45641723024876 
1814	 0.68898491130803 
1815	 0.754569750731774 
1816	 0.671194633806349 
1817	 0.78601689299487 
1818	 0.876011845616056 
1819	 0.845820277990201 
1820	 0.841102165791614 
1821	 0.939115399817435 
1822	 0.997290755947469 
1823	 0.988707186590712 
1824	 0.956166626321021 
1825	 0.847687619578967 
1826	 0.965282371596367 
1827	 1.01236028066758 
1828	 0.996006406390599 
1829	 1.02103113229622 
1830	 1.26149560846506 
1831	 1.24598173049949 
1832	 0.991693742274918 
1833	 0.891526969369489 
1834	 0.730066731925894 
1835	 0.665573367778805 
1836	 0.652254921437908 
1837	 0.735054466715865 
1838	 0.768877543497339 
1839	 0.797198501637178 
1840	 0.910315547637211 
1841	 1.12603901954567 
1842	 1.29465300290401 
1843	 1.73734633787404 
1844	 1.92361766923302 
1845	 2.10573146540556 
1846	 1.64130828656287 
1847	 1.59361698976406 
1848	 1.39336132243595 
1849	 1.27189445654262 
1850	 1.35385022899132 
1851	 1.31287896186341 
1852	 1.13526987389848 
1853	 1.06274328393079 
1854	 1.03038806926521 
1855	 1.0214504484831 
1856	 1.02789476807861 
1857	 1.04684110590061 
1858	 1.07176558244477 
1859	 1.15084981334614 
1860	 1.18533492835384 
1861	 1.22911848367178 
1862	 1.18127739360893 
1863	 1.05235074180287 
1864	 0.98844846483623 
1865	 0.825475375637609 
1866	 0.767617542324717 
1867	 0.765885950587793 
1868	 0.855321690905827 
1869	 0.928319229527309 
1870	 1.117959114376 
1871	 1.17723782170599 
1872	 1.23444338808451 
1873	 1.20580150670291 
1874	 0.957532342485673 
1875	 0.89022948040045 
1876	 0.802990507621757 
1877	 0.831706644460045 
1878	 0.894117751925538 
1879	 1.12213869233877 
1880	 1.22552790856747 
1881	 1.37476676757506 
1882	 1.37817882378859 
1883	 1.23243991884016 
1884	 1.21273356634492 
1885	 1.15262404568525 
1886	 1.13656935804488 
1887	 1.237314883873 
1888	 1.30533014378121 
1889	 1.32369071071675 
1890	 1.27421914261302 
1891	 1.23421917722703 
1892	 1.14937293701143 
1893	 1.10396351127264 
1894	 1.05261838849288 
1895	 1.05473729324729 
1896	 1.13815758471267 
1897	 1.16018933014617 
1898	 1.22682358596832 
1899	 1.16956853488303 
1900	 1.14246279145221 
1901	 1.07001398263003 
1902	 1.05604886462772 
1903	 1.04953250568977 
1904	 1.0538031437245 
1905	 1.11000785337907 
1906	 1.08546232259312 
1907	 0.940533209265446 
1908	 0.919732369281953 
1909	 0.915653400053491 
1910	 1.35030083836554 
1911	 1.64284493513817 
1912	 3.15031956320709 
1913	 2.57672631140052 
1914	 1.14450542014201 
1915	 0.908504561972569 
1916	 0.567300597364598 
1917	 0.515926599111379 
1918	 0.582125261718983 
1919	 0.824458798980808 
1920	 1.04200293132068 
1921	 1.14904180135986 
1922	 1.21671147290725 
1923	 1.16150298121578 
1924	 1.34640867711995 
1925	 1.91173485858966 
1926	 2.18346345228984 
1927	 2.50380695922548 
1928	 2.72137687053222 
1929	 2.68908247989808 
1930	 1.99487249484108 
1931	 1.5762852046619 
1932	 1.57919736093201 
1933	 1.21836804663897 
1934	 0.972274050347292 
1935	 0.85209420784193 
1936	 0.8643798986971 
1937	 0.757437474098973 
1938	 0.52431654020881 
1939	 0.507183710795391 
1940	 0.629174081457331 
1941	 0.650500549482113 
1942	 0.846699555676917 
1943	 1.23615176792682 
1944	 1.50988810265083 
1945	 1.63222299183682 
1946	 1.70248484502591 
1947	 1.76056207514056 
1948	 1.88444265585198 
1949	 2.09884256394215 
1950	 1.93761079639608 
1951	 1.69248420814917 
1952	 1.47356427126543 
1953	 1.02247087711394 
1954	 0.82183849924928 
1955	 0.891873176492627 
1956	 1.0551194437944 
1957	 1.36599928985264 
1958	 1.87506380911358 
1959	 1.97136634591217 
1960	 1.55618815175195 
1961	 1.45137106188398 
1962	 1.30360471499281 
1963	 1.18615107590653 
1964	 1.06332967658995 
1965	 0.979913284344598 
1966	 0.836872754152486 
1967	 0.82031111039329 
1968	 0.889520628941966 
1969	 0.863349828202811 
1970	 0.860901584581997 
1971	 0.886757578628187 
1972	 0.856418313215751 
1973	 0.76431541059209 
1974	 0.762424207035465 
1975	 0.793394057899845 
1976	 0.810035696960432 
1977	 0.891870364742591 
1978	 0.880162567483705 
1979	 0.926046377561604 
1980	 0.921344692622459 
1981	 0.960059891271992 
1982	 1.14096811809714 
1983	 1.0776500326055 
1984	 0.885935196764973 
1985	 0.767665457961935 
1986	 0.523739855431661 
1987	 0.437163185527713 
1988	 0.368620497480598 
1989	 0.38442209123038 
1990	 0.542785084651216 
1991	 0.648434565235319 
1992	 0.661480147042722 
1993	 0.754062690995354 
1994	 0.759084350147829 
1995	 0.775107419092489 
1996	 0.815679414050909 
1997	 0.912653638404939 
1998	 0.982169351544982 
1999	 0.976179730908771 
2000	 1.06545245197394 
2001	 1.39629846389948 
2002	 1.64779523845171 
2003	 1.57540485799401 
2004	 1.52102659368376 
2005	 1.05507010552573 
2006	 1.02239997332026 
2007	 1.3409151094055 
2008	 1.32722816163153 
2009	 1.3264665667505 
2010	 1.40168310843394 
2011	 1.23243283737444 
2012	 0.922711347504709 
2013	 0.799801126433764 
2014	 0.665253969414292 
2015	 0.573978485381313 
2016	 0.604609694753569 
2017	 0.546906112565846 
2018	 0.51372467658163 
2019	 0.511956339691892 
2020	 0.527079008466549 
2021	 0.608550912508063 
2022	 0.593278216977743 
2023	 0.599347917569211 
2024	 0.545617029873808 
2025	 0.381899640110338 
2026	 0.346476384869444 
2027	 0.372220641612593 
2028	 0.339295118394911 
2029	 0.321966796433378 
2030	 0.331515567210447 
2031	 0.29783409617004 
2032	 0.302871647023795 
2033	 0.334516315077798 
2034	 0.370401156875384 
2035	 0.413423457498524 
2036	 0.470619008279719 
2037	 0.49671095022335 
2038	 0.504516618825149 
2039	 0.507654184974377 
2040	 0.452308416178533 
2041	 0.449148785934052 
2042	 0.483048020230071 
2043	 0.48512397879381 
2044	 0.48403717829491 
2045	 0.468505646879369 
2046	 0.39432618925647 
2047	 0.335241273525243 
2048	 0.317186748451385 
2049	 0.401091017687881 
2050	 0.501998640559031 
2051	 0.637496045870306 
2052	 0.697683679875503 
2053	 0.660196721447695 
2054	 0.63008162210358 
2055	 0.551160482444437 
2056	 0.505854881792098 
2057	 0.508665214113981 
2058	 0.520896531068171 
2059	 0.547627396976176 
2060	 0.602650658098998 
2061	 0.618019986731814 
2062	 0.623051908093074 
2063	 0.614027518606851 
2064	 0.584352709640771 
2065	 0.514329677406971 
2066	 0.515090225455838 
2067	 0.51252272898188 
2068	 0.51362203042556 
2069	 0.500924139671716 
2070	 0.506059949166584 
2071	 0.485324742206157 
2072	 0.450595667216976 
2073	 0.411001430584803 
2074	 0.364961343365057 
2075	 0.33466496721321 
2076	 0.283571322232376 
2077	 0.222298540175327 
2078	 0.210005377103983 
2079	 0.191980281833785 
2080	 0.208173039482814 
2081	 0.3077699258664 
2082	 0.378767921465564 
2083	 0.50643575874264 
2084	 0.540874695298008 
2085	 0.546562932111318 
2086	 0.495904356853732 
2087	 0.405965807957692 
2088	 0.37030271448946 
2089	 0.42151762249522 
2090	 0.454360219243949 
2091	 0.451063776809283 
2092	 0.443276126714007 
2093	 0.404510772151411 
2094	 0.33233608932083 
2095	 0.302147103637545 
2096	 0.280267822618027 
2097	 0.268056993854412 
2098	 0.271339571586959 
2099	 0.28597745487598 
2100	 0.341610613800648 
2101	 0.358669697952834 
2102	 0.357453757631904 
2103	 0.393958560428333 
2104	 0.359578828157126 
2105	 0.316523439411327 
2106	 0.337883340454355 
2107	 0.302180265995462 
2108	 0.294065330243081 
2109	 0.314917633393891 
2110	 0.283445232971022 
2111	 0.235978301911336 
2112	 0.215031139940093 
2113	 0.183419946946964 
2114	 0.182466431959808 
2115	 0.22145670865321 
2116	 0.247364340255156 
2117	 0.291947865792833 
2118	 0.314365129876236 
2119	 0.328841731886035 
2120	 0.332361337868054 
2121	 0.319586694565897 
2122	 0.305429083547929 
2123	 0.272166374716412 
2124	 0.237771747183747 
2125	 0.200489702023614 
2126	 0.171713172231993 
2127	 0.160720910111227 
2128	 0.143777588671651 
2129	 0.161365886090308 
2130	 0.188395924622985 
2131	 0.191577509951356 
2132	 0.202543871092865 
2133	 0.20281226033945 
2134	 0.164971220146187 
2135	 0.166016172431324 
2136	 0.195277477582216 
2137	 0.198137869728635 
2138	 0.211377150003823 
2139	 0.251565708949371 
2140	 0.229254289054055 
2141	 0.243690181428921 
2142	 0.270253838636081 
2143	 0.270825105082014 
2144	 0.279715105591951 
2145	 0.271863359496952 
2146	 0.284359825490751 
2147	 0.301480691403956 
2148	 0.305309961465956 
2149	 0.325467495842406 
2150	 0.326278685606176 
2151	 0.298022711485864 
2152	 0.278632273706079 
2153	 0.255070475916026 
2154	 0.23814332811122 
2155	 0.214840359865811 
2156	 0.227211233573916 
2157	 0.231717469113454 
2158	 0.24110781926343 
2159	 0.248034136146997 
2160	 0.218654876299403 
2161	 0.205027142670014 
2162	 0.191948355700949 
2163	 0.182347821844637 
2164	 0.15782826303935 
2165	 0.118470266026327 
2166	 8.95306641217169E-02 
2167	 7.16181346285158E-02 
2168	 0.108896558099138 
2169	 0.158981376006156 
2170	 0.178201441724429 
2171	 0.197035621139383 
2172	 0.194845123069377 
2173	 0.210384621108782 
2174	 0.248040033330212 
2175	 0.272244774982719 
2176	 0.297262027019438 
2177	 0.320666241500697 
2178	 0.302007323233108 
2179	 0.272110365310071 
2180	 0.289816180858666 
2181	 0.315239537695622 
2182	 0.37152622672996 
2183	 0.368418215086005 
2184	 0.341048974988543 
2185	 0.347338565505757 
2186	 0.351313192980316 
2187	 0.397798844248284 
2188	 0.503168647555252 
2189	 0.517935173196779 
2190	 0.471495045898877 
2191	 0.462535659062248 
2192	 0.420354082535623 
2193	 0.317906158455189 
2194	 0.285932491815125 
2195	 0.25151430179812 
2196	 0.246017053273256 
2197	 0.30000234436349 
2198	 0.291069706778526 
2199	 0.287585472812874 
2200	 0.336299858715702 
2201	 0.354789784445461 
2202	 0.383416103639052 
2203	 0.4322511757213 
2204	 0.489568349381309 
2205	 0.487147981199871 
2206	 0.439419132751813 
2207	 0.39155861126237 
2208	 0.320114340916739 
2209	 0.30062282608211 
2210	 0.307596668109088 
2211	 0.272172626813355 
2212	 0.242643202438563 
2213	 0.199124735540323 
2214	 0.152094526212999 
2215	 0.156028306485059 
2216	 0.232549572045242 
2217	 0.255106674291521 
2218	 0.294322334925441 
2219	 0.296745594935367 
2220	 0.260888187866635 
2221	 0.248034663820765 
2222	 0.213873720878965 
2223	 0.21677198913547 
2224	 0.253535514369816 
2225	 0.277587722431643 
2226	 0.342322755620122 
2227	 0.415861506335679 
2228	 0.480619011096498 
2229	 0.537543247996844 
2230	 0.52689982416207 
2231	 0.445956901889291 
2232	 0.365733030106536 
2233	 0.284244343209981 
2234	 0.216451929458695 
2235	 0.195180042999321 
2236	 0.219599493315288 
2237	 0.253648939386187 
2238	 0.338850031071354 
2239	 0.415904825319019 
2240	 0.438982395120059 
2241	 0.528890214357237 
2242	 0.543676158427507 
2243	 0.483446849185346 
2244	 0.471328574795139 
2245	 0.423727855360253 
2246	 0.400722496647967 
2247	 0.40578552377448 
2248	 0.430349545573563 
2249	 0.505702729589847 
2250	 0.538795603211678 
2251	 0.571675270115562 
2252	 0.601521867600677 
2253	 0.576603805864301 
2254	 0.527421761531329 
2255	 0.475678025263318 
2256	 0.46599105474498 
2257	 0.49703246425663 
2258	 0.476510137291085 
2259	 0.481269625068018 
2260	 0.509141580657735 
2261	 0.49222784853955 
2262	 0.510598281458591 
2263	 0.513442335472506 
2264	 0.487020712216092 
2265	 0.50367005454229 
2266	 0.491029033130227 
2267	 0.488097720817905 
2268	 0.496207252474475 
2269	 0.481609437816682 
2270	 0.444704445603167 
2271	 0.381894559129403 
2272	 0.29661099431214 
2273	 0.254591111870013 
2274	 0.185264424438434 
2275	 0.173546551492532 
2276	 0.222697006094134 
2277	 0.226975191542036 
2278	 0.241893309461869 
2279	 0.257090895400364 
2280	 0.23980406389472 
2281	 0.268034658094428 
2282	 0.341015981052006 
2283	 0.359760616287366 
2284	 0.364765002197291 
2285	 0.377363771782161 
2286	 0.384725917334296 
2287	 0.385370054192397 
2288	 0.364566831587925 
2289	 0.393135414242152 
2290	 0.379157836902609 
2291	 0.322367446240204 
2292	 0.35451917196789 
2293	 0.316367275926467 
2294	 0.298985007372482 
2295	 0.33618492137415 
2296	 0.35180141930447 
2297	 0.396208330172545 
2298	 0.400271575663785 
2299	 0.388678283100563 
2300	 0.400012911129209 
2301	 0.42173350610591 
2302	 0.458889691516063 
2303	 0.539969802756699 
2304	 0.532772681949188 
2305	 0.540042259112677 
2306	 0.555308375564596 
2307	 0.534450411181322 
2308	 0.580658411707009 
2309	 0.689661569188977 
2310	 0.68930144445734 
2311	 0.696314156895796 
2312	 0.673307780269287 
2313	 0.543250929638817 
2314	 0.534964205595821 
2315	 0.574032092443178 
2316	 0.610506209241733 
2317	 0.707345755550841 
2318	 0.788052644668341 
2319	 0.910254421108465 
2320	 0.910120141534973 
2321	 0.82930779667683 
2322	 0.805859382906036 
2323	 0.761162686221292 
2324	 0.710259214045371 
2325	 0.708962297588011 
2326	 0.663024026339116 
2327	 0.504398560234157 
2328	 0.427752965713094 
2329	 0.370680409653475 
2330	 0.356920027611636 
2331	 0.438968047020813 
2332	 0.477450887727036 
2333	 0.488856089772919 
2334	 0.539979224949512 
2335	 0.650762714371669 
2336	 0.685170462528381 
2337	 0.793471128076347 
2338	 0.802159012168333 
2339	 0.782068140447223 
2340	 0.71889845104918 
2341	 0.612143327683015 
2342	 0.676099153148621 
2343	 0.690679595928276 
2344	 0.62030792096121 
2345	 0.623000154497591 
2346	 0.616728080322508 
2347	 0.632416904075669 
2348	 0.724598939377832 
2349	 0.832008030074505 
2350	 0.873293026899075 
2351	 0.77887733427496 
2352	 0.845772135471737 
2353	 0.965149991776959 
2354	 1.23197520925538 
2355	 1.62539173239169 
2356	 1.54363270872935 
2357	 1.19120277312833 
2358	 0.871241259791536 
2359	 0.902011253637652 
2360	 1.00610690657318 
2361	 1.22469593876185 
2362	 1.79308609084264 
2363	 1.31011783889334 
2364	 0.927232928148136 
2365	 0.919033212897925 
2366	 0.882386329879444 
2367	 0.878510432632259 
2368	 0.925225230823263 
2369	 0.742869026903845 
2370	 0.537334232066853 
2371	 0.506603553032312 
2372	 0.47431273940545 
2373	 0.598954964645388 
2374	 1.03838266439253 
2375	 1.31378639766373 
2376	 1.85499807840839 
2377	 2.0853821590106 
2378	 1.83472389689398 
2379	 1.91298263241692 
2380	 1.8602395812428 
2381	 1.84033003608593 
2382	 1.95498488832909 
2383	 2.73932380973382 
2384	 5.65538289300199 
2385	 3.42305131953775 
2386	 2.43694699975139 
2387	 1.90174133918501 
2388	 1.06323010383924 
2389	 0.826615437131931 
2390	 0.641700811194803 
2391	 0.523736039582977 
2392	 0.434139073557 
2393	 0.498705480635654 
2394	 0.747901492829842 
2395	 1.00341473790337 
2396	 2.08289449116331 
2397	 3.30537138486384 
2398	 2.93878659783651 
2399	 3.41135323489532 
2400	 4.16848451558196 
2401	 4.10475811237802 
2402	 3.80099852708772 
2403	 3.58260133390581 
2404	 2.42889762313421 
2405	 2.0309166396404 
2406	 2.45576213584564 
2407	 2.09164811761055 
2408	 1.73035005809884 
2409	 1.38871947689287 
2410	 0.950567691264738 
2411	 0.889650564802009 
2412	 0.999339367804394 
2413	 1.00242356868016 
2414	 1.07537162252351 
2415	 1.02427779851746 
2416	 0.794627235128576 
2417	 0.726668661890186 
2418	 0.533497767961955 
2419	 0.700971062074057 
2420	 1.44860211366857 
2421	 1.58655656581677 
2422	 1.80853766764822 
2423	 1.9703456743004 
2424	 1.04887069803427 
2425	 0.897213424279745 
2426	 1.34531679588489 
2427	 1.50374592840513 
2428	 1.69757779012732 
2429	 1.88958260472182 
2430	 2.13110393864681 
2431	 2.30580776439126 
2432	 2.31225183862999 
2433	 3.20756764090986 
2434	 47.2053518153623 
2435	-16.1840423604767 
2436	-8.11288767402815 
2437	-28.112572589876 
2438	 3.19938714389424 
2439	 2.45907678633152 
2440	 1.44850879804174 
2441	 1.04217187552372 
2442	 1.38030521965824 
2443	 1.06830967629165 
2444	 0.732465377445399 
2445	 0.905165210808053 
2446	 1.23746240328879 
2447	 1.73748338304123 
2448	 6.65072800908045 
2449	-79.1824264001744 
2450	-11.0101034106997 
2451	 188.567174391375 
2452	 1.50298398054922 
2453	 0.371185842455999 
2454	 0.585762274199964 
2455	 1.28412641526865 
2456	 3.12589670611928 
2457	 4.99917407648657 
2458	 3.45032992821923 
2459	 2.74756223585137 
2460	 2.64676824973716 
2461	 3.73285968086735 
2462	 3.26090275802115 
2463	 2.10794584784364 
2464	 1.38046974503497 
2465	 0.410064961265531 
2466	 0.199731547744056 
2467	 0.258801715079384 
2468	 0.329593352492029 
2469	 1.12149518586464 
2470	 1.88768137362893 
2471	 2.19559294589161 
2472	 1.92244225365474 
2473	 0.769493058623126 
2474	 0.575780128471814 
2475	 0.624957585945512 
2476	 0.537471879998451 
2477	 0.300867359256363 
2478	 0.29331850570057 
2479	 0.345460476804665 
2480	 0.434519710133228 
2481	 0.869650787576368 
2482	 1.1086973513808 
2483	 1.4489023797358 
2484	 1.58147872149432 
2485	 1.05203155994854 
2486	 1.07720190628205 
2487	 1.5212444305085 
2488	 1.52092690783232 
2489	 1.31236739918981 
2490	 1.72157200077846 
2491	 2.19730624551019 
2492	 1.62004038709659 
2493	 2.09781997113926 
2494	 1.83478110536337 
2495	 1.17690115413863 
2496	 1.16351277499899 
2497	 1.47227439962163 
2498	 1.31008823645904 
2499	 0.974412805069139 
2500	 0.969959368181992 
