Wavelength	000024.asd
350	 0.29778031046668 
351	 0.296875989203255 
352	 0.295709419688335 
353	 0.294628363749174 
354	 0.295126422916302 
355	 0.295689871364644 
356	 0.295746354990301 
357	 0.295914116658421 
358	 0.29670256158796 
359	 0.29721011338509 
360	 0.29692909535296 
361	 0.296265006288011 
362	 0.295093803233515 
363	 0.293306945317064 
364	 0.291084543592065 
365	 0.289251168791357 
366	 0.287675555791842 
367	 0.286366042256121 
368	 0.285463469074804 
369	 0.285485296719567 
370	 0.286351332689643 
371	 0.287754580322691 
372	 0.289195801990884 
373	 0.289930519162973 
374	 0.289987078421991 
375	 0.289295729276465 
376	 0.287548719743248 
377	 0.285859596723499 
378	 0.284617830231289 
379	 0.284153712279082 
380	 0.285164303774316 
381	 0.286736567856095 
382	 0.28867612211847 
383	 0.290842979009301 
384	 0.292337449495084 
385	 0.292907709492898 
386	 0.2921002420961 
387	 0.289605552484088 
388	 0.286922664725595 
389	 0.285163914101752 
390	 0.284885776261333 
391	 0.286041530539838 
392	 0.287884751356657 
393	 0.290206326104274 
394	 0.292660606811052 
395	 0.294547354374487 
396	 0.29432749715506 
397	 0.292129934088621 
398	 0.288972356153517 
399	 0.286354409965677 
400	 0.284518170936252 
401	 0.283630391030756 
402	 0.28381955484835 
403	 0.285288477562499 
404	 0.287285378529583 
405	 0.289136178330867 
406	 0.290418367167023 
407	 0.291215250434491 
408	 0.291597558635407 
409	 0.291663171668701 
410	 0.291510596608647 
411	 0.291383542736201 
412	 0.291309245283302 
413	 0.29122718910494 
414	 0.291146896292626 
415	 0.291517290689491 
416	 0.292189097316343 
417	 0.292521147331951 
418	 0.292999330585256 
419	 0.293289059906318 
420	 0.293286693500771 
421	 0.293536462941138 
422	 0.293717920260171 
423	 0.293765687103834 
424	 0.293719194849151 
425	 0.29366279892353 
426	 0.293886893136101 
427	 0.294756677677053 
428	 0.296482398551288 
429	 0.297821904318528 
430	 0.298294541663075 
431	 0.297835895242573 
432	 0.296762612802677 
433	 0.295070680416756 
434	 0.293559303742001 
435	 0.292973399602941 
436	 0.293590032260923 
437	 0.294474348974038 
438	 0.29527435945039 
439	 0.29586205666251 
440	 0.295538238346668 
441	 0.294580726297025 
442	 0.293612018873422 
443	 0.293480332608539 
444	 0.293973929508353 
445	 0.294719493623954 
446	 0.295305428015035 
447	 0.295364502538794 
448	 0.294844502638154 
449	 0.294207325014228 
450	 0.294092573067864 
451	 0.294664127509399 
452	 0.295665973498341 
453	 0.296680341977297 
454	 0.297171529838187 
455	 0.296802000915762 
456	 0.296210886422493 
457	 0.296018641668135 
458	 0.296296177487048 
459	 0.296528215346787 
460	 0.296570053379897 
461	 0.296483559682838 
462	 0.296421758876358 
463	 0.296619639755015 
464	 0.297091617949056 
465	 0.297608493765721 
466	 0.297847998469331 
467	 0.297852647032802 
468	 0.297790174018174 
469	 0.297924060553463 
470	 0.297949800813561 
471	 0.297733450817338 
472	 0.297279112268953 
473	 0.29683758042285 
474	 0.29678045607956 
475	 0.297044146163077 
476	 0.297116349048134 
477	 0.297036638817819 
478	 0.296909110581563 
479	 0.296899530357638 
480	 0.297285437018434 
481	 0.297682984164781 
482	 0.298053613716264 
483	 0.298602345456881 
484	 0.299951617366435 
485	 0.301739170206447 
486	 0.303062994846482 
487	 0.302560074072617 
488	 0.300706743300744 
489	 0.299265644917237 
490	 0.299464456035233 
491	 0.300494730982316 
492	 0.301519284784023 
493	 0.30194735645171 
494	 0.301559207565109 
495	 0.301410489286043 
496	 0.301677692485524 
497	 0.302220641547846 
498	 0.302622681305174 
499	 0.302738477670615 
500	 0.302547841329838 
501	 0.302081994366918 
502	 0.301342487730206 
503	 0.300425051573704 
504	 0.299336057961007 
505	 0.29817791287436 
506	 0.298242886791472 
507	 0.299499210163946 
508	 0.301246783827692 
509	 0.30205957900469 
510	 0.302932281819072 
511	 0.304033973851499 
512	 0.305294877213003 
513	 0.306705660900943 
514	 0.307525577909661 
515	 0.308091492545326 
516	 0.309496207768605 
517	 0.310906067769013 
518	 0.311018533003505 
519	 0.309708389219012 
520	 0.309100640344437 
521	 0.309602259939591 
522	 0.310476652248728 
523	 0.310741419247065 
524	 0.310478358927857 
525	 0.311003396956963 
526	 0.312323998118408 
527	 0.313072384309797 
528	 0.312375605138775 
529	 0.311562524044289 
530	 0.311781294719637 
531	 0.312670250040297 
532	 0.313735386745946 
533	 0.314321758910601 
534	 0.313936511685458 
535	 0.313624576802207 
536	 0.313879732558266 
537	 0.314441608393537 
538	 0.314168293823929 
539	 0.314186548448422 
540	 0.314056468149102 
541	 0.313219975345419 
542	 0.312125802095715 
543	 0.311714782628849 
544	 0.312004349117781 
545	 0.312394634141558 
546	 0.31297970188683 
547	 0.31359883270612 
548	 0.314173308089653 
549	 0.314819970943027 
550	 0.315443535534356 
551	 0.31609468881705 
552	 0.316795935932717 
553	 0.317225903072067 
554	 0.317307998325858 
555	 0.31729979959064 
556	 0.317726446854997 
557	 0.318135528678724 
558	 0.318368057730164 
559	 0.318341323574865 
560	 0.317968297657174 
561	 0.317833684258324 
562	 0.317834972023173 
563	 0.317585324679265 
564	 0.317406842996794 
565	 0.317108836410434 
566	 0.316272368898161 
567	 0.314201136804031 
568	 0.312064230308787 
569	 0.31037863774908 
570	 0.309355039861724 
571	 0.308856323071558 
572	 0.308037987445762 
573	 0.306998892527714 
574	 0.306500776064124 
575	 0.305775512338376 
576	 0.304818162282274 
577	 0.303883281501802 
578	 0.30346369388944 
579	 0.3034876539795 
580	 0.303956408377908 
581	 0.304824754458716 
582	 0.30589484222184 
583	 0.306726931364481 
584	 0.306846476818033 
585	 0.305726875983231 
586	 0.302118541508446 
587	 0.296719267444839 
588	 0.290668789252372 
589	 0.28519765863425 
590	 0.28160526630103 
591	 0.281275613293486 
592	 0.284368525351159 
593	 0.287607727680192 
594	 0.290137304117135 
595	 0.292005516967637 
596	 0.294130254742688 
597	 0.29674112729369 
598	 0.299478330207002 
599	 0.301934502618314 
600	 0.304651307128369 
601	 0.307098984695413 
602	 0.308830716131348 
603	 0.309542414627707 
604	 0.310005673831215 
605	 0.310294482518808 
606	 0.310368832672984 
607	 0.310272336012586 
608	 0.310034555829341 
609	 0.309764010788014 
610	 0.309574624665378 
611	 0.30923437718338 
612	 0.309279630600939 
613	 0.309790828245092 
614	 0.310122700543462 
615	 0.310487196098696 
616	 0.310739674355058 
617	 0.310705328830121 
618	 0.310417546511748 
619	 0.310138533841539 
620	 0.309946505723084 
621	 0.309772128651004 
622	 0.309555997053422 
623	 0.30919560494697 
624	 0.308542585974172 
625	 0.307444004718306 
626	 0.304919403752191 
627	 0.301669055127571 
628	 0.299290259416295 
629	 0.299738492841758 
630	 0.301136497254669 
631	 0.302119676760059 
632	 0.302334662437586 
633	 0.303150284639517 
634	 0.304158580606782 
635	 0.304797047888242 
636	 0.305315721542126 
637	 0.305688973750571 
638	 0.305951916861615 
639	 0.306179914846681 
640	 0.306461864619809 
641	 0.306557329591517 
642	 0.306265553581215 
643	 0.305570063568427 
644	 0.303691276086502 
645	 0.299758397521551 
646	 0.293531440918017 
647	 0.287539137931847 
648	 0.285908275240058 
649	 0.288860352097947 
650	 0.292396181094971 
651	 0.29293780387518 
652	 0.29315619026876 
653	 0.294721860002582 
654	 0.29446424288924 
655	 0.294046388234249 
656	 0.29472806717258 
657	 0.297143097556008 
658	 0.298913449752013 
659	 0.30068278947607 
660	 0.302680523011972 
661	 0.304249108336106 
662	 0.305121606667622 
663	 0.305473741562884 
664	 0.305606376839876 
665	 0.305796725870655 
666	 0.306054673598909 
667	 0.30634456326401 
668	 0.306582799056804 
669	 0.306653284220151 
670	 0.306657898131526 
671	 0.306649481043353 
672	 0.306550425965584 
673	 0.306598815429095 
674	 0.306625484791381 
675	 0.306445373706344 
676	 0.306369104798932 
677	 0.306232420472997 
678	 0.306010626586099 
679	 0.305805681332494 
680	 0.305750769560528 
681	 0.305472279726121 
682	 0.30487054998428 
683	 0.30462309223758 
684	 0.304487700447613 
685	 0.301957505929933 
686	 0.294560664542614 
687	 0.288174975605178 
688	 0.28660049712368 
689	 0.289172344070293 
690	 0.290222443152212 
691	 0.287998898376242 
692	 0.282787105947977 
693	 0.276646051580321 
694	 0.275949931791413 
695	 0.281228633164945 
696	 0.288515428024422 
697	 0.292678165687145 
698	 0.290105225787197 
699	 0.285299940672955 
700	 0.282136585065069 
701	 0.282719225462054 
702	 0.287523259479962 
703	 0.29275433640508 
704	 0.295260169159318 
705	 0.295381345492471 
706	 0.296211834190039 
707	 0.298505835672195 
708	 0.301473725741572 
709	 0.303665033371372 
710	 0.305853836190625 
711	 0.308136867084546 
712	 0.309436276778083 
713	 0.309068071033193 
714	 0.305769824374795 
715	 0.298276151726444 
716	 0.284342722655931 
717	 0.269358700583259 
718	 0.258985083718543 
719	 0.258763349404069 
720	 0.271631753829239 
721	 0.283548703558639 
722	 0.287608021064815 
723	 0.282031577468793 
724	 0.27707163656133 
725	 0.275686383651953 
726	 0.277529590659273 
727	 0.280806287406859 
728	 0.283625532231276 
729	 0.285585328858677 
730	 0.288001071047997 
731	 0.297430436903459 
732	 0.309593464722306 
733	 0.319206044585352 
734	 0.322712656793898 
735	 0.323695331581184 
736	 0.325136447183387 
737	 0.32892305399984 
738	 0.333456479506589 
739	 0.338534109609979 
740	 0.343528343083929 
741	 0.347704795442962 
742	 0.351517806361608 
743	 0.354631160652024 
744	 0.356975175711591 
745	 0.358911333502065 
746	 0.360312785685711 
747	 0.361317728485651 
748	 0.362091194361057 
749	 0.362597035509287 
750	 0.363182874591323 
751	 0.363764650402089 
752	 0.364037355917197 
753	 0.364246440660306 
754	 0.36445020190377 
755	 0.36459342216215 
756	 0.36450645039521 
757	 0.360847335473369 
758	 0.351944123280779 
759	 0.336042761237159 
760	 0.324726417598384 
761	 0.316018799202381 
762	 0.313266346240602 
763	 0.314926875968356 
764	 0.325868831351809 
765	 0.33891044736119 
766	 0.349180436661552 
767	 0.356086540850163 
768	 0.360204263852935 
769	 0.362700248156493 
770	 0.364338257772875 
771	 0.365433961261608 
772	 0.366156802450441 
773	 0.366619543359235 
774	 0.366908748432554 
775	 0.367121447369661 
776	 0.367226470883439 
777	 0.367253948806715 
778	 0.367281750518889 
779	 0.367228549575163 
780	 0.367118784791526 
781	 0.366846811331689 
782	 0.366051574294778 
783	 0.364999830702127 
784	 0.363292276601239 
785	 0.360561801726173 
786	 0.357232501732415 
787	 0.353827113520645 
788	 0.351006373678076 
789	 0.349530173731769 
790	 0.349782186101145 
791	 0.35164777655214 
792	 0.354061087557581 
793	 0.35512627815554 
794	 0.35364818902256 
795	 0.351395350354178 
796	 0.349937415157053 
797	 0.348745261040027 
798	 0.34722968845801 
799	 0.345606853323303 
800	 0.344332168531806 
801	 0.343234151767353 
802	 0.343271480095162 
803	 0.344823495042173 
804	 0.347446496567411 
805	 0.349094221821037 
806	 0.349087627736625 
807	 0.347306616019393 
808	 0.343981297813883 
809	 0.339494928355447 
810	 0.333923397108875 
811	 0.327300811750362 
812	 0.31960695525414 
813	 0.312339510508226 
814	 0.306657441995635 
815	 0.303513153325703 
816	 0.302388990950726 
817	 0.305123737209877 
818	 0.310874303442311 
819	 0.316309122601212 
820	 0.314439872363797 
821	 0.312139724534498 
822	 0.314374801013836 
823	 0.321955145092817 
824	 0.323193876281576 
825	 0.320373351849174 
826	 0.318141157168829 
827	 0.318607244965795 
828	 0.319980561452159 
829	 0.321220591309785 
830	 0.322070144443699 
831	 0.32463496918987 
832	 0.328198737381841 
833	 0.331979786591701 
834	 0.335264585430608 
835	 0.337928022725747 
836	 0.340561046755144 
837	 0.343203486768767 
838	 0.345337761340157 
839	 0.347303567849969 
840	 0.349269525148524 
841	 0.351247522160121 
842	 0.353030412891275 
843	 0.355478531727584 
844	 0.357636802746978 
845	 0.358631034361421 
846	 0.359049114329759 
847	 0.35908183290794 
848	 0.359162030691196 
849	 0.359600989165412 
850	 0.35987370762503 
851	 0.359265432370863 
852	 0.358929060646197 
853	 0.360904093304054 
854	 0.364054044695967 
855	 0.36563169224184 
856	 0.365090833089125 
857	 0.364312985688892 
858	 0.364439558711749 
859	 0.365126648231666 
860	 0.365871106241336 
861	 0.36635539255669 
862	 0.366053253680603 
863	 0.365476737322173 
864	 0.365467132185491 
865	 0.367005065037779 
866	 0.368807974328559 
867	 0.369513622192269 
868	 0.368581672144159 
869	 0.368046885324757 
870	 0.36757497266242 
871	 0.367316464372069 
872	 0.367436360928114 
873	 0.367214453559347 
874	 0.367070790947751 
875	 0.36686697512786 
876	 0.366147923832733 
877	 0.365258035509198 
878	 0.364437428026463 
879	 0.363924128662713 
880	 0.363838738540988 
881	 0.363278023253838 
882	 0.362316500588499 
883	 0.361248641393024 
884	 0.360450718949767 
885	 0.360629093705917 
886	 0.360687873253154 
887	 0.35960352960305 
888	 0.357189641086238 
889	 0.353456255656909 
890	 0.348798219488388 
891	 0.34351350556353 
892	 0.337419511828596 
893	 0.330899006422733 
894	 0.324638405857086 
895	 0.319252265402755 
896	 0.314381531328019 
897	 0.309664010623784 
898	 0.306466458914146 
899	 0.306792718812779 
900	 0.311525365668149 
901	 0.314147849047067 
902	 0.311800929704437 
903	 0.305259836886328 
904	 0.299644267178218 
905	 0.298071336522785 
906	 0.300081124759734 
907	 0.302691973755332 
908	 0.301374894274292 
909	 0.296570190303941 
910	 0.290733738788037 
911	 0.287323733355144 
912	 0.286801124843736 
913	 0.288676632957599 
914	 0.291778060797013 
915	 0.294778334236632 
916	 0.298924825507025 
917	 0.301691663738745 
918	 0.301687428648838 
919	 0.299196332448821 
920	 0.296388813268227 
921	 0.295336375333296 
922	 0.295315623392579 
923	 0.293130436731549 
924	 0.288171699784634 
925	 0.281124118952254 
926	 0.273386024296569 
927	 0.267065525783979 
928	 0.264230948991094 
929	 0.262701537570573 
930	 0.259935734587866 
931	 0.255794269179454 
932	 0.256011359041732 
933	 0.259216328499215 
934	 0.261711963168033 
935	 0.26296919179036 
936	 0.259475749956838 
937	 0.252259620211332 
938	 0.244148405222724 
939	 0.238186641513567 
940	 0.237653104171322 
941	 0.237002111870225 
942	 0.234764135862403 
943	 0.235392908455465 
944	 0.236785642782586 
945	 0.240166778062225 
946	 0.242591601263021 
947	 0.23731154930206 
948	 0.236927159536129 
949	 0.237505697843683 
950	 0.236149925244997 
951	 0.234328408011887 
952	 0.235713489936535 
953	 0.238971376720146 
954	 0.241793721732633 
955	 0.242456569706913 
956	 0.245091428765149 
957	 0.245746776936919 
958	 0.24567214725887 
959	 0.249880357725527 
960	 0.253668757182104 
961	 0.26179104530836 
962	 0.271552509811411 
963	 0.276562646060478 
964	 0.282534754387082 
965	 0.286636167555198 
966	 0.287211735921493 
967	 0.284335666460213 
968	 0.280565459093916 
969	 0.280038202717998 
970	 0.282094478978237 
971	 0.284184283053732 
972	 0.288559661874947 
973	 0.293775880296459 
974	 0.297953169644218 
975	 0.299968134589995 
976	 0.302522120535683 
977	 0.30530774337601 
978	 0.307875633620706 
979	 0.310495458233724 
980	 0.315865197162621 
981	 0.31917206074137 
982	 0.321438203103853 
983	 0.324494208516989 
984	 0.327417212345682 
985	 0.331396947122029 
986	 0.334836989082842 
987	 0.336539815708079 
988	 0.337393347671187 
989	 0.340797754432616 
990	 0.343723472638469 
991	 0.344614582663157 
992	 0.345930800490611 
993	 0.346450568214151 
994	 0.345956036889579 
995	 0.345309105075137 
996	 0.346065734589083 
997	 0.347636930093385 
998	 0.349201925158423 
999	 0.350187368210096 
1000	 0.350630397098795 
1001	 0.36787592362035 
1002	 0.368438974664505 
1003	 0.368557483860361 
1004	 0.3684348787406 
1005	 0.367528245318357 
1006	 0.367624959323707 
1007	 0.367613819819424 
1008	 0.368067559037733 
1009	 0.369515161132821 
1010	 0.37067316868022 
1011	 0.370935859548708 
1012	 0.371165135543064 
1013	 0.371172545278072 
1014	 0.371253339690417 
1015	 0.372053292304633 
1016	 0.373060483483248 
1017	 0.373611201939313 
1018	 0.374390545692326 
1019	 0.374539640993751 
1020	 0.373875149118198 
1021	 0.373607779862125 
1022	 0.373033611456487 
1023	 0.372940817396854 
1024	 0.372792975982479 
1025	 0.373677201654202 
1026	 0.374818211698598 
1027	 0.37578435063199 
1028	 0.376584568171199 
1029	 0.376260819590892 
1030	 0.375798821876648 
1031	 0.375307185702438 
1032	 0.375136002546484 
1033	 0.375559112785587 
1034	 0.375646763211989 
1035	 0.375508452303679 
1036	 0.375399821816115 
1037	 0.37513168051734 
1038	 0.37515417296442 
1039	 0.375408193978042 
1040	 0.375926468945104 
1041	 0.376573817998988 
1042	 0.376236740657653 
1043	 0.375457711361643 
1044	 0.375012682541621 
1045	 0.374182594438871 
1046	 0.373648394492269 
1047	 0.373570609658556 
1048	 0.373156735840039 
1049	 0.372664438859606 
1050	 0.372059507109301 
1051	 0.371813116634505 
1052	 0.371486307659733 
1053	 0.371510414472677 
1054	 0.37161066407378 
1055	 0.371094688870891 
1056	 0.370349187822851 
1057	 0.369086433238533 
1058	 0.368078802546233 
1059	 0.367853123806495 
1060	 0.367783067303248 
1061	 0.367664858687615 
1062	 0.367355486553217 
1063	 0.367962221427989 
1064	 0.36794703759146 
1065	 0.367783815050929 
1066	 0.366875594940051 
1067	 0.366435322741499 
1068	 0.36540591137829 
1069	 0.364358157739374 
1070	 0.364134413961584 
1071	 0.364192037516286 
1072	 0.364192510644713 
1073	 0.364295438428797 
1074	 0.364958470308743 
1075	 0.36566196745971 
1076	 0.365533270989262 
1077	 0.364941944238218 
1078	 0.364461844003039 
1079	 0.363801537230625 
1080	 0.362742939945157 
1081	 0.361869967600385 
1082	 0.361387575402577 
1083	 0.360758966728706 
1084	 0.360051560025709 
1085	 0.359039117570046 
1086	 0.357422738417122 
1087	 0.356132612405082 
1088	 0.35490575216614 
1089	 0.353016341400266 
1090	 0.351656005911285 
1091	 0.350200045206968 
1092	 0.348616825428379 
1093	 0.347948601339332 
1094	 0.346916959089173 
1095	 0.344590350743814 
1096	 0.34120157697104 
1097	 0.336685897721181 
1098	 0.331851145285754 
1099	 0.327460241017416 
1100	 0.323375696845979 
1101	 0.319388397365063 
1102	 0.315106271217402 
1103	 0.309940514464879 
1104	 0.305581867819898 
1105	 0.302084653852904 
1106	 0.298077373217277 
1107	 0.294564544815185 
1108	 0.289793684644285 
1109	 0.284220689826781 
1110	 0.280004774410561 
1111	 0.276000809163253 
1112	 0.272091352970066 
1113	 0.269870729407608 
1114	 0.267075390470545 
1115	 0.260624091784591 
1116	 0.254021412776022 
1117	 0.245341265991802 
1118	 0.237517490621114 
1119	 0.23062164601398 
1120	 0.218278173246729 
1121	 0.201203386191242 
1122	 0.172261186523986 
1123	 0.144521585489558 
1124	 0.131283751476245 
1125	 0.125996325881405 
1126	 0.130439121998122 
1127	 0.141203795658302 
1128	 0.168375434943945 
1129	 0.174150758480114 
1130	 0.174033328520285 
1131	 0.17742679037136 
1132	 0.171954453486519 
1133	 0.16531122705884 
1134	 0.164492374633926 
1135	 0.170111293939201 
1136	 0.175382432070363 
1137	 0.177049225804393 
1138	 0.183451941116463 
1139	 0.18408066634173 
1140	 0.183513569604306 
1141	 0.188100451752297 
1142	 0.191685264009425 
1143	 0.19928505263421 
1144	 0.20006010531977 
1145	 0.198378394433405 
1146	 0.194149093443192 
1147	 0.182728491827085 
1148	 0.172079041070465 
1149	 0.167383395422239 
1150	 0.171154067221231 
1151	 0.174646995571943 
1152	 0.176737903511979 
1153	 0.184602011351783 
1154	 0.190352898801961 
1155	 0.195447686563495 
1156	 0.201973705627371 
1157	 0.206170347912817 
1158	 0.210135077790132 
1159	 0.215746515255031 
1160	 0.220464899256896 
1161	 0.228099529432459 
1162	 0.237668887088831 
1163	 0.244763306704454 
1164	 0.252642897312881 
1165	 0.259104710004985 
1166	 0.263343171367509 
1167	 0.267820761350805 
1168	 0.271956147199204 
1169	 0.275942642911427 
1170	 0.280034252993574 
1171	 0.283211046543952 
1172	 0.286869336050159 
1173	 0.291034405232519 
1174	 0.294349523889816 
1175	 0.297660723719293 
1176	 0.299815875504597 
1177	 0.301304206058945 
1178	 0.301725312453712 
1179	 0.301154960751007 
1180	 0.300459264423849 
1181	 0.298321684595451 
1182	 0.297010474607394 
1183	 0.295750293790432 
1184	 0.294638373570543 
1185	 0.293451483130441 
1186	 0.293110634506395 
1187	 0.294569653332028 
1188	 0.295684597197849 
1189	 0.297961774323468 
1190	 0.300710905113813 
1191	 0.302879015346781 
1192	 0.305706293788759 
1193	 0.307653977645406 
1194	 0.309610318197439 
1195	 0.311003254509476 
1196	 0.311896059642849 
1197	 0.312414768118093 
1198	 0.312628959285744 
1199	 0.312734468157408 
1200	 0.311815180726762 
1201	 0.311797767958097 
1202	 0.311869093416987 
1203	 0.312652097617128 
1204	 0.313875803855211 
1205	 0.314995793873675 
1206	 0.316852592164103 
1207	 0.318970211862961 
1208	 0.321371725261069 
1209	 0.323272260879701 
1210	 0.324330373610933 
1211	 0.324626408883666 
1212	 0.325212965278136 
1213	 0.32455677083095 
1214	 0.325776162491232 
1215	 0.327908866478249 
1216	 0.329826892097455 
1217	 0.332707990422404 
1218	 0.334966209698399 
1219	 0.336786025044839 
1220	 0.338746676625793 
1221	 0.340831286445144 
1222	 0.342637157199703 
1223	 0.344612476570808 
1224	 0.346488873613749 
1225	 0.347788023194455 
1226	 0.349422097028591 
1227	 0.350647525721146 
1228	 0.352100414838814 
1229	 0.353853525809891 
1230	 0.355866781506287 
1231	 0.357722758431303 
1232	 0.359770875959539 
1233	 0.361651042843402 
1234	 0.363717538659972 
1235	 0.365160922165467 
1236	 0.366480079836194 
1237	 0.367589388341239 
1238	 0.368140925540403 
1239	 0.368771190621435 
1240	 0.369253040436054 
1241	 0.369733746067221 
1242	 0.370012230110467 
1243	 0.370568076457509 
1244	 0.371066298758997 
1245	 0.371851063751459 
1246	 0.372729923001174 
1247	 0.373468567077888 
1248	 0.373760544258519 
1249	 0.373957554520902 
1250	 0.373818211657308 
1251	 0.373099756052159 
1252	 0.372478185675941 
1253	 0.372010885800851 
1254	 0.370969458556392 
1255	 0.369203013849642 
1256	 0.367881383020059 
1257	 0.366351593385533 
1258	 0.36479054013661 
1259	 0.363806197090871 
1260	 0.36213307160503 
1261	 0.359523497983417 
1262	 0.35746923005927 
1263	 0.355254790814346 
1264	 0.353208258217745 
1265	 0.351366724630632 
1266	 0.349558858905781 
1267	 0.348011186922849 
1268	 0.346488448936798 
1269	 0.345820896804531 
1270	 0.345772699917531 
1271	 0.346293579225139 
1272	 0.347672910242973 
1273	 0.348673714661195 
1274	 0.350130620298768 
1275	 0.351383528700958 
1276	 0.352327306842034 
1277	 0.353666473956593 
1278	 0.355392228626732 
1279	 0.356905431668281 
1280	 0.358930654637278 
1281	 0.360108618168509 
1282	 0.361263363361399 
1283	 0.361610882660557 
1284	 0.361130299330658 
1285	 0.360201237747201 
1286	 0.35920708149625 
1287	 0.357793147375115 
1288	 0.357038305944886 
1289	 0.356467332161783 
1290	 0.355295104178204 
1291	 0.353891114579859 
1292	 0.352670328830629 
1293	 0.351069482240189 
1294	 0.3495065113447 
1295	 0.34829619174972 
1296	 0.346711315938827 
1297	 0.344399466415553 
1298	 0.342637505736178 
1299	 0.34122765479479 
1300	 0.339503590216811 
1301	 0.337862725291185 
1302	 0.336134252418146 
1303	 0.334258828986006 
1304	 0.33219756610457 
1305	 0.330508643807228 
1306	 0.327696385768176 
1307	 0.323371577513412 
1308	 0.319836270509629 
1309	 0.315968452088383 
1310	 0.311364540980723 
1311	 0.308089838565511 
1312	 0.3040501084045 
1313	 0.300050416499666 
1314	 0.295417833219437 
1315	 0.291942353980818 
1316	 0.289187769480858 
1317	 0.285981086947744 
1318	 0.283010874175956 
1319	 0.280714894065581 
1320	 0.279104123624998 
1321	 0.276984085423006 
1322	 0.27642461044765 
1323	 0.273573125854136 
1324	 0.267544322671841 
1325	 0.263064904349225 
1326	 0.257693173155271 
1327	 0.252524181584049 
1328	 0.248735191989676 
1329	 0.243149541574017 
1330	 0.234538892050438 
1331	 0.227047146279286 
1332	 0.221002061745734 
1333	 0.213560391412517 
1334	 0.204035845900309 
1335	 0.197031087632064 
1336	 0.191851974798945 
1337	 0.186647949734662 
1338	 0.183910685769891 
1339	 0.186259174984743 
1340	 0.186959263792246 
1341	 0.187402342673926 
1342	 0.188787710425846 
1343	 0.195906276184552 
1344	 0.198629415231364 
1345	 0.199459864189443 
1346	 0.19705533054076 
1347	 0.178549552790804 
1348	 0.168915749364993 
1349	 0.161436766731763 
1350	 0.148204490767275 
1351	 0.17406778863431 
1352	 0.18912827473865 
1353	 0.188274688749678 
1354	 0.138793534647913 
1355	-7.52481294563647E-02 
1356	-0.133645225682259 
1357	 1.10483084127012E-02 
1358	 4.42100832909922E-02 
1359	 0.224058455174072 
1360	 0.497335992760416 
1361	 0.805209966836635 
1362	 0.611327797654436 
1363	 0.873309591338151 
1364	 0.999712853028531 
1365	 1.00289349310613 
1366	 0.92946143389484 
1367	 0.960638780973497 
1368	-0.445684688449832 
1369	-0.989567853492861 
1370	 0.131392295634627 
1371	 0.219818343643176 
1372	 0.34425975932052 
1373	 0.365724839087672 
1374	 0.439430862276162 
1375	 0.501910921629284 
1376	 0.496572718450385 
1377	 0.584533640413749 
1378	 1.18920118906629 
1379	 1.0871928248809 
1380	 0.512547327065397 
1381	 0.429125520557902 
1382	 7.93354808919355E-02 
1383	-0.013062718771494 
1384	 0.323912448919452 
1385	 1.05003003555692 
1386	 1.95410960880045 
1387	 1.94088649104471 
1388	 1.28637081308285 
1389	 1.07521472489822 
1390	 1.04286642848055 
1391	 0.893774930495207 
1392	 1.03537107840058 
1393	-3.59945970471351 
1394	-2.07297979382934 
1395	 4.49651881780214 
1396	 1.84485957939938 
1397	 0.669073071466327 
1398	 0.509381622007573 
1399	 0.403861224410863 
1400	 0.351483704400423 
1401	 0.331735069097813 
1402	 0.202371181885027 
1403	-0.256209102584441 
1404	-0.997702715819321 
1405	-0.287427460902286 
1406	-0.321025143896277 
1407	-0.619151277315806 
1408	-0.472689302038516 
1409	-0.312728394068718 
1410	-0.163457276011164 
1411	 0.201156078261068 
1412	 0.23472513211946 
1413	 0.103458636186666 
1414	 6.57502903089762E-02 
1415	-0.403780954428548 
1416	-1.6642779805862 
1417	-10.4153213165923 
1418	 3.15093467451711 
1419	 0.735102835753166 
1420	 0.935931243302121 
1421	 0.662765872390904 
1422	 0.621204648069946 
1423	 0.632711170785378 
1424	 0.459693634003881 
1425	 0.340320967921679 
1426	 0.311149711153803 
1427	 0.264302520298101 
1428	 5.87521844649406E-02 
1429	-6.97813769848783E-02 
1430	-6.46165700656393E-02 
1431	-0.118435501509516 
1432	-0.366162417976281 
1433	-0.338134045348739 
1434	-0.106526552637683 
1435	 6.41282018851765E-03 
1436	 0.170464555423038 
1437	 0.229094846986885 
1438	 0.195811610449513 
1439	 0.240680343960246 
1440	 0.300828504215134 
1441	 0.33720346708081 
1442	 0.453269725235199 
1443	 0.421541021087223 
1444	 0.225031104366808 
1445	 0.203958566882023 
1446	 0.220637867833509 
1447	 0.219864547819763 
1448	 0.350098293763132 
1449	 0.328397760053423 
1450	 0.179667069056796 
1451	 0.121157658945171 
1452	 0.042718067959542 
1453	 2.04622004035045E-02 
1454	 6.71297952061534E-02 
1455	 8.41413690884477E-02 
1456	 8.98991007387206E-02 
1457	 9.08100038681449E-02 
1458	 7.31150009289145E-02 
1459	 1.86029752503892E-02 
1460	 3.25156327850671E-02 
1461	 6.24116346086923E-02 
1462	 9.90454135383368E-02 
1463	 0.201520190896249 
1464	 0.238123629783376 
1465	 0.251379770286886 
1466	 0.258691992377036 
1467	 0.219898616913943 
1468	 0.218104548578779 
1469	 0.223679194858971 
1470	 0.221570430935728 
1471	 0.235584457009602 
1472	 0.229700806096808 
1473	 0.21505785950714 
1474	 0.189303626977494 
1475	 0.145258673281538 
1476	 0.12654676444657 
1477	 0.089248993796253 
1478	 0.100297297359747 
1479	 0.157144534156751 
1480	 0.17343453598217 
1481	 0.198745597606072 
1482	 0.201803668064086 
1483	 0.16542344972656 
1484	 0.170170986973618 
1485	 0.187914794444457 
1486	 0.199498329506991 
1487	 0.219163440270566 
1488	 0.231591902091513 
1489	 0.233275497614369 
1490	 0.242969015943508 
1491	 0.256494661410962 
1492	 0.265790722431021 
1493	 0.274220877691792 
1494	 0.282514553723333 
1495	 0.287555972714161 
1496	 0.295533720578477 
1497	 0.306815839453922 
1498	 0.315313402531226 
1499	 0.324274546361221 
1500	 0.332219444826781 
1501	 0.336524419305564 
1502	 0.33973549596742 
1503	 0.345935718060844 
1504	 0.353451542028391 
1505	 0.360429282437678 
1506	 0.370017799029575 
1507	 0.375311418828222 
1508	 0.377830589547163 
1509	 0.382708705224564 
1510	 0.387963696388294 
1511	 0.392007587947448 
1512	 0.397205216451808 
1513	 0.399415750080767 
1514	 0.39894156886118 
1515	 0.400794721061179 
1516	 0.40166093014948 
1517	 0.405034426859694 
1518	 0.410332299529203 
1519	 0.414795669178873 
1520	 0.421098984936884 
1521	 0.423941326098507 
1522	 0.425726995088729 
1523	 0.426473215837662 
1524	 0.424472160638176 
1525	 0.424803217759628 
1526	 0.425650881943225 
1527	 0.426367427762268 
1528	 0.426884843255844 
1529	 0.428949484293074 
1530	 0.431540602012473 
1531	 0.43432781389924 
1532	 0.439692849921333 
1533	 0.44209914244663 
1534	 0.442656452671393 
1535	 0.443962149481318 
1536	 0.444789984769095 
1537	 0.445230352895898 
1538	 0.445696178623475 
1539	 0.446063482524348 
1540	 0.445338009373286 
1541	 0.445539632099329 
1542	 0.446742780610028 
1543	 0.44729835561324 
1544	 0.448155446720112 
1545	 0.448029062755231 
1546	 0.446556279166795 
1547	 0.446387699198738 
1548	 0.44600949004816 
1549	 0.446395731112836 
1550	 0.448621956454928 
1551	 0.44944559519519 
1552	 0.450025663234175 
1553	 0.450179521353272 
1554	 0.449666290075046 
1555	 0.44880506127245 
1556	 0.447106748456162 
1557	 0.446029764313879 
1558	 0.44493856349966 
1559	 0.443883210939862 
1560	 0.443342412453323 
1561	 0.442588832756248 
1562	 0.442094851674078 
1563	 0.440340256250851 
1564	 0.439605973209496 
1565	 0.438180068089322 
1566	 0.435998224165208 
1567	 0.434073003902253 
1568	 0.430174524044216 
1569	 0.426472125590279 
1570	 0.423375350188286 
1571	 0.420787744081147 
1572	 0.420779009588283 
1573	 0.421226577119855 
1574	 0.420193942351219 
1575	 0.419284751947275 
1576	 0.418561955306184 
1577	 0.416408145306529 
1578	 0.414644605387676 
1579	 0.414606185227667 
1580	 0.414396384621937 
1581	 0.41472819361723 
1582	 0.417296110111753 
1583	 0.419004784736662 
1584	 0.418772825710041 
1585	 0.419159954744483 
1586	 0.419905092810248 
1587	 0.420121191205228 
1588	 0.420249587161768 
1589	 0.421561588182086 
1590	 0.421339404853907 
1591	 0.419675630385917 
1592	 0.418689307456989 
1593	 0.417532516229843 
1594	 0.41698399772193 
1595	 0.416456583345496 
1596	 0.415918429039361 
1597	 0.416467843096882 
1598	 0.415237802993036 
1599	 0.412955604313365 
1600	 0.411224147679276 
1601	 0.408672219848939 
1602	 0.406745313038281 
1603	 0.404971739424852 
1604	 0.403894975277789 
1605	 0.402792416132748 
1606	 0.402927928826298 
1607	 0.404704175400569 
1608	 0.405203149275126 
1609	 0.406011631919729 
1610	 0.406086746887288 
1611	 0.404933398410933 
1612	 0.405056916717816 
1613	 0.405386283013194 
1614	 0.406322927831313 
1615	 0.408201633059986 
1616	 0.409276564856727 
1617	 0.410629545583805 
1618	 0.411375732648489 
1619	 0.411564742684053 
1620	 0.411697427047016 
1621	 0.411500154728513 
1622	 0.411477309612835 
1623	 0.411372895992678 
1624	 0.411329448557204 
1625	 0.411057951827678 
1626	 0.411307393312694 
1627	 0.412311485929138 
1628	 0.412196902063302 
1629	 0.412185900048835 
1630	 0.411282278178633 
1631	 0.408712938203763 
1632	 0.407424975083103 
1633	 0.406028999926333 
1634	 0.405487940728936 
1635	 0.406186286861098 
1636	 0.405788745014489 
1637	 0.405816141840283 
1638	 0.405087762856281 
1639	 0.402810619644699 
1640	 0.401986286178899 
1641	 0.401539220370413 
1642	 0.401027838123394 
1643	 0.401616730849851 
1644	 0.401107022767783 
1645	 0.399966773425358 
1646	 0.398723665900786 
1647	 0.396614559117524 
1648	 0.395837710438028 
1649	 0.39554091154467 
1650	 0.395168289740941 
1651	 0.395757700596812 
1652	 0.395284639612648 
1653	 0.39400224838153 
1654	 0.393270042291439 
1655	 0.392659871242153 
1656	 0.391875849661163 
1657	 0.391070757996283 
1658	 0.390238992382731 
1659	 0.389081454504445 
1660	 0.388539981711249 
1661	 0.3883066779779 
1662	 0.388375593442393 
1663	 0.388629827059119 
1664	 0.387961395300158 
1665	 0.387191906921352 
1666	 0.387278087281822 
1667	 0.386964861665411 
1668	 0.387551335636613 
1669	 0.388647821264564 
1670	 0.388706743065347 
1671	 0.389213283101517 
1672	 0.388332498015154 
1673	 0.386676132124021 
1674	 0.387267878474882 
1675	 0.387961800159295 
1676	 0.388635872205537 
1677	 0.389538662683167 
1678	 0.388410453092274 
1679	 0.387012257746551 
1680	 0.386681748195631 
1681	 0.386532327593783 
1682	 0.386430286926563 
1683	 0.385092247227049 
1684	 0.382556336745264 
1685	 0.380399722534066 
1686	 0.377543684595698 
1687	 0.374854104659326 
1688	 0.373208915762711 
1689	 0.372139916848416 
1690	 0.373696841847487 
1691	 0.375801967330362 
1692	 0.376878306282413 
1693	 0.376674062881154 
1694	 0.37542180469469 
1695	 0.374557481650997 
1696	 0.372334896220848 
1697	 0.370907442289984 
1698	 0.369094430139451 
1699	 0.365167788072606 
1700	 0.364333518068587 
1701	 0.364826607903142 
1702	 0.363678200515712 
1703	 0.364332796970511 
1704	 0.36413674054408 
1705	 0.362544562931596 
1706	 0.364481682317023 
1707	 0.364373289636606 
1708	 0.364424888115125 
1709	 0.365915554710469 
1710	 0.363738181590975 
1711	 0.362974587913209 
1712	 0.361372442277546 
1713	 0.35897055098067 
1714	 0.357277077628261 
1715	 0.356351309075576 
1716	 0.356859910486273 
1717	 0.354864589183635 
1718	 0.354296555007661 
1719	 0.353636807343414 
1720	 0.350818038201281 
1721	 0.349371606178987 
1722	 0.348030654372771 
1723	 0.346975247181728 
1724	 0.347245849374935 
1725	 0.346676357660301 
1726	 0.344942684957002 
1727	 0.343411497265733 
1728	 0.341367791128326 
1729	 0.339392068031774 
1730	 0.339300544201939 
1731	 0.338352398117595 
1732	 0.336529395462064 
1733	 0.334374086244683 
1734	 0.330018624015016 
1735	 0.328717949309626 
1736	 0.330361620669271 
1737	 0.32814482103555 
1738	 0.325387991097013 
1739	 0.320472853465138 
1740	 0.315225294761755 
1741	 0.311421187007865 
1742	 0.311172222254373 
1743	 0.312065431540157 
1744	 0.311631479738852 
1745	 0.312984744495683 
1746	 0.314464595113702 
1747	 0.313249621311955 
1748	 0.315741428231886 
1749	 0.318209535045254 
1750	 0.31755431442605 
1751	 0.315670886168039 
1752	 0.309501787243379 
1753	 0.303299543925802 
1754	 0.300956674974396 
1755	 0.303926376800119 
1756	 0.306461723288661 
1757	 0.305787555939045 
1758	 0.304673074454327 
1759	 0.298492378193533 
1760	 0.290491883273333 
1761	 0.285653451816893 
1762	 0.28136400667117 
1763	 0.27432544372989 
1764	 0.269955748791609 
1765	 0.266032599374503 
1766	 0.256870370864032 
1767	 0.250945811152166 
1768	 0.247535100129775 
1769	 0.242005228481441 
1770	 0.239363010556509 
1771	 0.235078351325999 
1772	 0.230041002759535 
1773	 0.226724940975938 
1774	 0.217461449681797 
1775	 0.21323599163003 
1776	 0.209015711887978 
1777	 0.212439391442123 
1778	 0.211976236355413 
1779	 0.209395951468093 
1780	 0.209054894711219 
1781	 0.208499140984808 
1782	 0.209743542577237 
1783	 0.21666503452892 
1784	 0.21353980655234 
1785	 0.205326629297473 
1786	 0.205695116895037 
1787	 0.189395190027045 
1788	 0.201977339402723 
1789	 0.223849814504577 
1790	 0.215257599258867 
1791	 0.207439969880384 
1792	 0.171053242350122 
1793	 0.144786549839044 
1794	 0.158788691597639 
1795	 0.161949871672134 
1796	 0.141593634915915 
1797	 8.43992985641424E-02 
1798	 8.13802397060981E-03 
1799	 1.83852201075239E-02 
1800	 0.188725677217271 
1801	-0.386653178572256 
1802	-0.384291384188097 
1803	 0.144229487764347 
1804	 0.284907233631304 
1805	 0.469135000251389 
1806	 0.610733407676325 
1807	 0.659644798032839 
1808	 0.228460605669547 
1809	 0.491710267130766 
1810	 1.60432600173891 
1811	 1.90842219624401 
1812	 2.68366153172145 
1813	 3.4499114780041 
1814	 2.2120127530983 
1815	 1.8332282391867 
1816	 1.74560397328782 
1817	 5.62613577979577 
1818	-7.97583858519166 
1819	-4.40011571405196 
1820	-4.20342656115324 
1821	-3.57405993008748 
1822	-2.38609432032354 
1823	-2.46113395992886 
1824	-2.71786551847417 
1825	-3.99330149670069 
1826	-1.29707599987669 
1827	-1.22086778168672 
1828	-1.91050905276541 
1829	-3.54245647702965 
1830	 11.2773138227556 
1831	 3.09790596528449 
1832	 1.98238056171862 
1833	 1.47783798761274 
1834	 2.03440464884811 
1835	 1.95465044975633 
1836	 1.62732386290028 
1837	 0.94652542080183 
1838	 0.803264645380077 
1839	 0.586893950641869 
1840	 0.593930596184424 
1841	 0.883097263129603 
1842	 1.04613983920378 
1843	 2.52733503736398 
1844	 5.27560676530893 
1845	-2.87594637633008 
1846	-1.53425034881246 
1847	 2.22368033485575 
1848	 1.03905031805226 
1849	 1.1291969527934 
1850	 1.6291196465295 
1851	 1.64709797939094 
1852	 1.69584812886023 
1853	 1.74228029239398 
1854	 1.34415321867966 
1855	 0.841716954618634 
1856	 0.310107569635925 
1857	 3.00870425569352E-02 
1858	-0.124981073881761 
1859	-0.883418540647233 
1860	-0.899293860113653 
1861	 0.768247868140193 
1862	 2.07724767405705 
1863	-38.4059472410401 
1864	-13.6524543920129 
1865	 6.28509848978993 
1866	 3.65043251877779 
1867	 2.02040281506538 
1868	 0.485452412154308 
1869	-1.4505044944411E-03 
1870	-0.727120930463863 
1871	-1.12219828455828 
1872	 0.235189917253099 
1873	-0.305741103604731 
1874	-2.60290038896483 
1875	-4.47982643962327 
1876	 3.16539610695268 
1877	 1.03782164544873 
1878	 0.804672050726347 
1879	 0.577777771573896 
1880	 0.393171685333599 
1881	 0.927493791169495 
1882	 2.97385079282299 
1883	 1.78020901293727 
1884	 2.3062568225177 
1885	 1.90973329174431 
1886	 3.10604809702465 
1887	 1.56401204316266 
1888	 0.944400558480417 
1889	 1.37500800108723 
1890	 7.03720768586138E-02 
1891	 0.309466139727751 
1892	 0.383289484385642 
1893	 0.422029045414592 
1894	 0.625490659674226 
1895	 0.668383734819844 
1896	 0.416209773312693 
1897	 0.465442311712896 
1898	 0.386186371308838 
1899	 0.771644698602491 
1900	 0.866326501856125 
1901	 1.01974405184416 
1902	 1.13884261460098 
1903	 1.55891197078004 
1904	 1.44646740749978 
1905	 0.442265430690091 
1906	-1.45623513369146E-03 
1907	-0.156422146848221 
1908	-8.92824856863758E-02 
1909	-0.479744857246194 
1910	-0.446239051586612 
1911	-0.726937947262573 
1912	-1.41845343742005 
1913	-1.40698607736096 
1914	-1.2790666460801 
1915	-0.914511888597055 
1916	 0.1425084691641 
1917	 0.583421643477717 
1918	 0.687892222670879 
1919	 0.728997836141883 
1920	 0.646210662098617 
1921	 0.350783107587614 
1922	 0.317808406102583 
1923	 0.341241765813528 
1924	 0.342242731944874 
1925	 0.364667487018484 
1926	 0.455264877066931 
1927	 0.560849916382336 
1928	 0.866348576576672 
1929	 1.67618069737396 
1930	 4.48773099027624 
1931	 13.3499172563423 
1932	-69.4405340627729 
1933	 7.07132136342242 
1934	 1.81755305452324 
1935	 1.01402716502692 
1936	 0.494067691734811 
1937	 0.405248641260251 
1938	 0.438888807543186 
1939	 0.402935629955475 
1940	 0.411695583242838 
1941	 0.656438441397739 
1942	 0.987862748450403 
1943	 0.594473884557088 
1944	 0.136072032207807 
1945	 0.168504636502413 
1946	 0.123283745182001 
1947	 2.51237494996915E-02 
1948	-9.33969047481005E-02 
1949	-0.341509516219045 
1950	-0.410597814964987 
1951	-0.49905511535088 
1952	-0.331380561196661 
1953	 0.259523395719226 
1954	 0.325266297847219 
1955	 0.328834040834129 
1956	 0.101965468802001 
1957	-0.56710465950832 
1958	 22.2610184055773 
1959	 1.00816367265526 
1960	-2.86674336764648E-03 
1961	-0.374482617307204 
1962	 1.30202538984023 
1963	 0.831540902648017 
1964	 0.360266871318983 
1965	 0.226757388133196 
1966	 0.167523184723946 
1967	 8.83176865688793E-03 
1968	 0.216910873089417 
1969	 0.598942387370834 
1970	 0.796501359574646 
1971	 1.07824941003477 
1972	 0.843057851695681 
1973	 0.374004292230324 
1974	 0.241814119367559 
1975	 6.26242888194467E-02 
1976	 0.123429145761432 
1977	 0.331338798866072 
1978	 0.6988192554632 
1979	 1.96065167547849 
1980	 1.5625569698992 
1981	 0.855057587737602 
1982	 0.53374156944348 
1983	 0.351789153143894 
1984	 0.226463896998769 
1985	 0.209902572570423 
1986	 0.172194750366343 
1987	 0.174185865918417 
1988	 0.248742178085079 
1989	 0.259648204700391 
1990	 0.281834532691327 
1991	 0.350370966435568 
1992	 0.401312546664538 
1993	 0.447092896360181 
1994	 0.461273563164896 
1995	 0.36357300376221 
1996	 0.279705827811524 
1997	 6.71875592333991E-02 
1998	 4.08496970872143E-02 
1999	 0.160941695642982 
2000	 0.226605646238813 
2001	 0.494268978239436 
2002	 0.688142250722072 
2003	 0.521994979897701 
2004	 0.514112715584427 
2005	 0.203928015617736 
2006	-0.121698669500765 
2007	 0.417246678526884 
2008	 0.423424094135171 
2009	 0.458519274979566 
2010	 0.660971757457227 
2011	 0.638979927376831 
2012	 0.455665077402387 
2013	 0.376833754896294 
2014	 0.293664474963014 
2015	 0.170808870579709 
2016	 0.143761762963714 
2017	-4.1850719131836E-03 
2018	-6.09845943794132E-02 
2019	 8.56532202971881E-02 
2020	 0.191328481594767 
2021	 0.261230935358744 
2022	 0.336870508274487 
2023	 0.418178712834005 
2024	 0.457375163792397 
2025	 0.47147266064092 
2026	 0.494548396863288 
2027	 0.543777477785995 
2028	 0.483166032226271 
2029	 0.453518522968489 
2030	 0.462703527304483 
2031	 0.434756272901182 
2032	 0.476554669972208 
2033	 0.506014312206533 
2034	 0.453763430419389 
2035	 0.474822825881277 
2036	 0.492861618804794 
2037	 0.505070629163659 
2038	 0.555684024501901 
2039	 0.590082786181166 
2040	 0.600599081564211 
2041	 0.615571073658281 
2042	 0.643482447080507 
2043	 0.632235264359047 
2044	 0.626599612576406 
2045	 0.605456833974517 
2046	 0.587506660480121 
2047	 0.568397107424495 
2048	 0.581873361695526 
2049	 0.577869451878473 
2050	 0.534252297361916 
2051	 0.539336597376227 
2052	 0.530282686985233 
2053	 0.481681609174598 
2054	 0.485277080165542 
2055	 0.553511188226403 
2056	 0.552450750613835 
2057	 0.548599020609532 
2058	 0.534804543252745 
2059	 0.468452016364832 
2060	 0.443603546500199 
2061	 0.421588186143093 
2062	 0.419117763791628 
2063	 0.441828292267417 
2064	 0.448366056033571 
2065	 0.471369551153139 
2066	 0.468722152977081 
2067	 0.461119953406003 
2068	 0.432963186616673 
2069	 0.418961138759561 
2070	 0.399361713540844 
2071	 0.393771357262571 
2072	 0.401158426255354 
2073	 0.449536259691264 
2074	 0.478674728600417 
2075	 0.494804172367192 
2076	 0.513551127329297 
2077	 0.507792886786362 
2078	 0.516165190371531 
2079	 0.523370110351141 
2080	 0.522536698438703 
2081	 0.525980054778387 
2082	 0.526012280093067 
2083	 0.523125177209742 
2084	 0.519433014378249 
2085	 0.51852401071913 
2086	 0.508479578022656 
2087	 0.487559214225099 
2088	 0.495782832673637 
2089	 0.524288642805592 
2090	 0.536962684146238 
2091	 0.557367986358921 
2092	 0.561818930546276 
2093	 0.534253458716075 
2094	 0.521086659378254 
2095	 0.50771203673575 
2096	 0.491039537900931 
2097	 0.479102707967565 
2098	 0.474475673357981 
2099	 0.481572890123319 
2100	 0.510145432310723 
2101	 0.520510219862363 
2102	 0.539406549948412 
2103	 0.532415802484396 
2104	 0.516311986992959 
2105	 0.492569393430461 
2106	 0.484877011999004 
2107	 0.504750904901389 
2108	 0.507762057308615 
2109	 0.510808822874267 
2110	 0.521608078322715 
2111	 0.496753427294683 
2112	 0.474309315372755 
2113	 0.470298127627896 
2114	 0.470000700061101 
2115	 0.472605352562783 
2116	 0.479852004281526 
2117	 0.505661812029643 
2118	 0.511491198826983 
2119	 0.501725631306164 
2120	 0.500631748931451 
2121	 0.508228616871946 
2122	 0.519543161116543 
2123	 0.524375551357401 
2124	 0.501524963663864 
2125	 0.485654218091007 
2126	 0.472644004555076 
2127	 0.459382305424849 
2128	 0.466511584312081 
2129	 0.468568150049215 
2130	 0.47539236198954 
2131	 0.483235313595438 
2132	 0.490799950926004 
2133	 0.494845807176996 
2134	 0.493739518743277 
2135	 0.487477176009848 
2136	 0.476804748836969 
2137	 0.468510956818673 
2138	 0.460953201443041 
2139	 0.463871393257119 
2140	 0.473889825612048 
2141	 0.47830517222589 
2142	 0.493848835427777 
2143	 0.509603227719284 
2144	 0.505740856273894 
2145	 0.515021442936091 
2146	 0.494157825946123 
2147	 0.453283820704697 
2148	 0.453534973796942 
2149	 0.462587590610939 
2150	 0.461246476928303 
2151	 0.481015498735185 
2152	 0.481531193942714 
2153	 0.45141209995035 
2154	 0.43370164603806 
2155	 0.411881337320055 
2156	 0.42253234590362 
2157	 0.432619751125249 
2158	 0.419940297082573 
2159	 0.430762896472274 
2160	 0.426050328210986 
2161	 0.380664465119009 
2162	 0.369170135350817 
2163	 0.34828368530184 
2164	 0.317406148666671 
2165	 0.326865483195101 
2166	 0.348330825846141 
2167	 0.368998783125208 
2168	 0.371188128809759 
2169	 0.367540679130215 
2170	 0.367756476701184 
2171	 0.36620106768954 
2172	 0.37199072731193 
2173	 0.375391836655371 
2174	 0.367189596171584 
2175	 0.367712320187087 
2176	 0.371706342490705 
2177	 0.374004620170615 
2178	 0.386651406948351 
2179	 0.401276862041882 
2180	 0.401820462740769 
2181	 0.401352280940601 
2182	 0.404084885690304 
2183	 0.41276657761859 
2184	 0.421568466719955 
2185	 0.421573527640096 
2186	 0.424513341627871 
2187	 0.418041419332949 
2188	 0.398077715836688 
2189	 0.395579488111598 
2190	 0.383954799192541 
2191	 0.354775133894435 
2192	 0.338776468404966 
2193	 0.319036299439373 
2194	 0.311663701615368 
2195	 0.319633790855442 
2196	 0.33123328786712 
2197	 0.352801519201726 
2198	 0.381394061993046 
2199	 0.401570980222963 
2200	 0.392355764070711 
2201	 0.373940163380437 
2202	 0.381322991838356 
2203	 0.383901813247886 
2204	 0.394389812588196 
2205	 0.424381221406168 
2206	 0.422697955390329 
2207	 0.430753461405955 
2208	 0.429521303087933 
2209	 0.406836916192137 
2210	 0.404559670495779 
2211	 0.382773744636069 
2212	 0.358732840760769 
2213	 0.351959805110183 
2214	 0.327657569906109 
2215	 0.322600417317749 
2216	 0.334043650284008 
2217	 0.340567623833535 
2218	 0.365230720389223 
2219	 0.368843459153059 
2220	 0.346590797511931 
2221	 0.343241750083366 
2222	 0.344290832428534 
2223	 0.335123014859793 
2224	 0.345782204730345 
2225	 0.376113552121126 
2226	 0.381715358749509 
2227	 0.382619265792664 
2228	 0.396752974092744 
2229	 0.39789776302049 
2230	 0.396925201972384 
2231	 0.413948786407214 
2232	 0.401910436882249 
2233	 0.375833796950059 
2234	 0.36696267667682 
2235	 0.362107144161877 
2236	 0.360033916284955 
2237	 0.360386196068706 
2238	 0.359925727371221 
2239	 0.344654742245874 
2240	 0.33510247454316 
2241	 0.341762086468821 
2242	 0.34273069482057 
2243	 0.349042377387993 
2244	 0.342283508221166 
2245	 0.31177251318485 
2246	 0.316043232033341 
2247	 0.346121231539362 
2248	 0.360374043626469 
2249	 0.376122608703448 
2250	 0.401312268042472 
2251	 0.430583741324172 
2252	 0.433057436143862 
2253	 0.443865818699299 
2254	 0.472159951479401 
2255	 0.459661916948513 
2256	 0.428475641805432 
2257	 0.410638942648933 
2258	 0.401502084048998 
2259	 0.39986689445581 
2260	 0.400232685675478 
2261	 0.416689119592036 
2262	 0.440108028925964 
2263	 0.449627507298649 
2264	 0.449206976229173 
2265	 0.4493211938963 
2266	 0.430203906214916 
2267	 0.388208553501258 
2268	 0.387647950174032 
2269	 0.395717364718757 
2270	 0.394699265050671 
2271	 0.398704221371005 
2272	 0.416939059807756 
2273	 0.426579492682779 
2274	 0.433169354310598 
2275	 0.429687115740093 
2276	 0.432080687239662 
2277	 0.420310656823632 
2278	 0.380150746076341 
2279	 0.364609299098016 
2280	 0.357255870543994 
2281	 0.346547528339023 
2282	 0.33191660931309 
2283	 0.334940451777812 
2284	 0.349879838447049 
2285	 0.364829404713099 
2286	 0.39519587867935 
2287	 0.399193635889193 
2288	 0.365019911322091 
2289	 0.365573460272927 
2290	 0.372869679181544 
2291	 0.389738771454046 
2292	 0.438231019416638 
2293	 0.427769921746769 
2294	 0.379582702213451 
2295	 0.369791488976238 
2296	 0.335152796102241 
2297	 0.31531310602003 
2298	 0.342850574421822 
2299	 0.343553529548905 
2300	 0.359357954359146 
2301	 0.384006737468781 
2302	 0.408452393821943 
2303	 0.39493888503747 
2304	 0.363709704264465 
2305	 0.354816202920677 
2306	 0.282119345934142 
2307	 0.276706763836672 
2308	 0.278919203788854 
2309	 0.299162476694366 
2310	 0.308053424727673 
2311	 0.322221043833886 
2312	 0.331645340002625 
2313	 0.346340647537445 
2314	 0.348155686146267 
2315	 0.367004385282819 
2316	 0.38402473452014 
2317	 0.365924506462166 
2318	 0.374171722158473 
2319	 0.394549491329241 
2320	 0.425513326749808 
2321	 0.496193936696267 
2322	 0.535195841195322 
2323	 0.596628454157427 
2324	 0.609919728036363 
2325	 0.564373153807706 
2326	 0.510359214114971 
2327	 0.422127960442529 
2328	 0.363288765072223 
2329	 0.252935376498024 
2330	 0.214404113189753 
2331	 0.234238950306338 
2332	 0.256978850024364 
2333	 0.358804420389998 
2334	 0.392001796954255 
2335	 0.401560671303638 
2336	 0.379650824515399 
2337	 0.371026093871075 
2338	 0.347939396557292 
2339	 0.32289287943531 
2340	 0.310651283095134 
2341	 0.288963209084488 
2342	 0.234500128868857 
2343	 0.30177181599285 
2344	 0.385975444747271 
2345	 0.280116866932073 
2346	 0.245560853393191 
2347	 0.202019047198379 
2348	 0.134453324658851 
2349	 0.252832230445678 
2350	 0.286085659471393 
2351	 0.297294249242134 
2352	 0.375454209686565 
2353	 0.493602420610679 
2354	 0.581899507264547 
2355	 0.65895399001353 
2356	 0.678652344046826 
2357	 0.573027041698032 
2358	 0.586530936889783 
2359	 0.570193851998308 
2360	 0.508291032292124 
2361	 0.460870859625981 
2362	 0.48813588720884 
2363	 0.640418196684436 
2364	 0.598878683113195 
2365	 0.634189444951636 
2366	 0.818572573725181 
2367	 0.714477619941848 
2368	 0.705454609923943 
2369	 0.837623048289563 
2370	 0.846864751143342 
2371	 0.853209773036535 
2372	 0.899407060055654 
2373	 0.908850378790047 
2374	 0.725687952215534 
2375	 0.573152696729347 
2376	 0.182480913627057 
2377	 0.134938366603411 
2378	 0.654160572758649 
2379	 1.09271264492453 
2380	 2.31113470788564 
2381	 2.16070039274329 
2382	 1.5539542403536 
2383	 1.19556959864531 
2384	 0.752824883168894 
2385	 0.507209550327057 
2386	 0.27990593063281 
2387	 0.264292598210181 
2388	 0.380810955735316 
2389	 0.339540534741599 
2390	 0.2383105905304 
2391	 0.207961328902006 
2392	 8.52896800700528E-02 
2393	 3.38680275955553E-03 
2394	 8.07915871711349E-02 
2395	 0.128221163555778 
2396	 5.95976495371218E-02 
2397	 0.131203710759939 
2398	 0.498172567625524 
2399	 0.837342993136502 
2400	 1.91053863221696 
2401	 14.3231984099042 
2402	-1.62317034278772 
2403	-1.85462951580862 
2404	-5.88485555275433 
2405	 13.6487403915754 
2406	 1.41951483107132 
2407	 0.992600778177388 
2408	 0.602833317617656 
2409	 0.577688921923141 
2410	 0.849584990268433 
2411	 0.827855442675508 
2412	 0.854626759184805 
2413	 0.894498498426411 
2414	 0.701779646235948 
2415	 0.589319731688553 
2416	 0.587016214686978 
2417	 0.683792472769117 
2418	 0.694663717329532 
2419	 0.957670237766833 
2420	 4.57853825505454 
2421	-427.469122038894 
2422	-4.80457305013907 
2423	-7.6607979328909 
2424	 3.35656044505688 
2425	 2.50875745689443 
2426	 2.40513066742682 
2427	 1.9580193980013 
2428	 1.67104947767725 
2429	 1.4347395853933 
2430	 0.883957248012493 
2431	 0.796447011354555 
2432	 1.17175579732242 
2433	 1.17651502134478 
2434	 1.01965340383142 
2435	 0.581059246549373 
2436	-0.371257644137218 
2437	-0.533190612580436 
2438	-0.485561683053401 
2439	-6.30368272216123E-02 
2440	 1.14713130133859 
2441	 1.1467272786251 
2442	 0.50513749798073 
2443	 0.634635387013212 
2444	 0.671001130729668 
2445	 0.729094660060851 
2446	 0.875916942587031 
2447	 0.803381061373245 
2448	 0.603012711563559 
2449	 0.56080760536964 
2450	 0.352830165805782 
2451	 0.577676459140614 
2452	 1.22146093500932 
2453	 2.2730275379696 
2454	-44.7080933715401 
2455	-37.7212801216518 
2456	 3.82555202533775 
2457	 0.863463262218375 
2458	 0.547571856028121 
2459	 1.20835214314359 
2460	 1.58507773635623 
2461	 6.20694310373215 
2462	 19.7751471219476 
2463	 2.34479619691424 
2464	 1.80988528739546 
2465	 1.56236298739945 
2466	 1.51367023704644 
2467	 1.68097801625817 
2468	 3.58080898684541 
2469	-1.41998039498913 
2470	-1.65992957955799 
2471	 3.81463524274226 
2472	 3.63700817877665 
2473	 6.79475911072935 
2474	 4.60312532609382 
2475	 5.24308612459415 
2476	 3.75163769305922 
2477	 1.66122271546237 
2478	 1.06396747596035 
2479	 0.399228000887109 
2480	 0.325328673427699 
2481	 0.313356124376517 
2482	 0.470902352926106 
2483	-8.88444956493543 
2484	-3.61419696260509 
2485	 313.883628894793 
2486	 31.5086980702244 
2487	 3.03155936604351 
2488	 1.54437199850919 
2489	 1.37387907461443 
2490	 0.897372268979126 
2491	 0.744902820684113 
2492	 0.506828371059739 
2493	 0.106699606713785 
2494	-5.96990333296101E-03 
2495	-2.47897083503452E-02 
2496	 0.266537647975603 
2497	-2.35453315842316 
2498	-2.36103962235452 
2499	-7.75385206063599 
2500	 58.2341733326588 
