Wavelength	000019.asd
350	 1.55168525208955E-02 
351	 0.016535728065571 
352	 1.57177199960889E-02 
353	 1.58428226183339E-02 
354	 1.56550912246141E-02 
355	 0.01581081734938 
356	 1.65614126605101E-02 
357	 1.75425033823737E-02 
358	 1.70133194977856E-02 
359	 1.67540389436948E-02 
360	 1.76593063221646E-02 
361	 1.85595916370842E-02 
362	 0.019394699415778 
363	 0.019855014366052 
364	 1.98072759765083E-02 
365	 1.95439406217101E-02 
366	 1.90498609721126E-02 
367	 1.95417416809772E-02 
368	 0.021748927882358 
369	 2.23156081714659E-02 
370	 2.22365430290944E-02 
371	 2.25178605361669E-02 
372	 2.37785299139186E-02 
373	 2.45772217229108E-02 
374	 2.46463816986095E-02 
375	 0.024593155425618 
376	 2.58239710966763E-02 
377	 0.026798398573185 
378	 2.77928307705308E-02 
379	 2.90661420649226E-02 
380	 2.98483146308686E-02 
381	 3.05524197322729E-02 
382	 3.12763717325546E-02 
383	 3.21432337192113E-02 
384	 3.38393466096825E-02 
385	 3.56862370608288E-02 
386	 3.72531998061517E-02 
387	 3.84763133034518E-02 
388	 4.05236356806063E-02 
389	 4.18195675141588E-02 
390	 4.22327845246776E-02 
391	 4.36345066412985E-02 
392	 4.58797152725247E-02 
393	 4.80391857803378E-02 
394	 0.049432910665426 
395	 5.02103835743564E-02 
396	 5.21229698393092E-02 
397	 5.42574264088541E-02 
398	 5.53616365809721E-02 
399	 5.62305922910086E-02 
400	 5.72437754319116E-02 
401	 5.85293909568734E-02 
402	 5.99626050646161E-02 
403	 0.060622051514418 
404	 6.12507360353833E-02 
405	 6.22499543129176E-02 
406	 6.33621523473274E-02 
407	 6.37808932933119E-02 
408	 6.44222948393794E-02 
409	 6.57719380875897E-02 
410	 6.60184546119835E-02 
411	 6.67715609198309E-02 
412	 6.77026825723971E-02 
413	 0.067941991809147 
414	 6.83590816501507E-02 
415	 6.89225337865446E-02 
416	 6.95045282019462E-02 
417	 6.99403667829968E-02 
418	 7.00368364104552E-02 
419	 7.04398703057923E-02 
420	 7.13553251831918E-02 
421	 7.19623556475436E-02 
422	 0.07260496772603 
423	 7.30815546378577E-02 
424	 7.32542899575832E-02 
425	 7.37990659895744E-02 
426	 7.43703136680109E-02 
427	 7.50670990068739E-02 
428	 7.61693668068147E-02 
429	 7.66276656101728E-02 
430	 7.72155258426003E-02 
431	 0.078250888155919 
432	 7.91479780569786E-02 
433	 7.99934773540078E-02 
434	 8.06382850531249E-02 
435	 8.11418581477083E-02 
436	 8.22716998633191E-02 
437	 8.31769435585345E-02 
438	 0.083903501951555 
439	 8.48917707025819E-02 
440	 8.61817373877304E-02 
441	 8.71159661486614E-02 
442	 8.77211305626692E-02 
443	 8.87927784210749E-02 
444	 8.96418160235055E-02 
445	 9.05544550422802E-02 
446	 0.091677213392743 
447	 0.092314968081521 
448	 9.28673166974745E-02 
449	 9.35596107122387E-02 
450	 9.44493078044095E-02 
451	 9.50694568639853E-02 
452	 0.095554745474849 
453	 9.60302962427975E-02 
454	 9.65655936677034E-02 
455	 0.097313710947027 
456	 9.80603036266529E-02 
457	 9.86351390495413E-02 
458	 9.91595052379617E-02 
459	 9.97301387218912E-02 
460	 0.100360076395703 
461	 0.10101421504551 
462	 0.101649914462502 
463	 0.102358723315355 
464	 0.103133128541385 
465	 0.103864418474318 
466	 0.104737697803675 
467	 0.10560831344585 
468	 0.106423860775373 
469	 0.107583933111872 
470	 0.10836405138156 
471	 0.109028204049628 
472	 0.11010761710499 
473	 0.110992846089826 
474	 0.111759436446425 
475	 0.112595735074349 
476	 0.113734418282558 
477	 0.114629010184493 
478	 0.115523617816873 
479	 0.116576337713322 
480	 0.117248365907741 
481	 0.118122732009575 
482	 0.119184516398891 
483	 0.12014570403147 
484	 0.120886052064984 
485	 0.121777288863458 
486	 0.122736587083691 
487	 0.123109042659842 
488	 0.123914317396766 
489	 0.124988501914109 
490	 0.125958254571053 
491	 0.126645317936526 
492	 0.127523054789063 
493	 0.128541757343603 
494	 0.129410589688722 
495	 0.130223381598283 
496	 0.131205060135913 
497	 0.132346794185223 
498	 0.133318336397639 
499	 0.134359785914771 
500	 0.135297310731552 
501	 0.136034593374425 
502	 0.137106155299012 
503	 0.138063588244571 
504	 0.138948183161814 
505	 0.140067888678073 
506	 0.141123531844666 
507	 0.142309597374333 
508	 0.143724492616007 
509	 0.145250535452091 
510	 0.1464859684034 
511	 0.147595440839507 
512	 0.14888037491953 
513	 0.15043975096364 
514	 0.151741178445865 
515	 0.152834679808081 
516	 0.154215169933837 
517	 0.155681444474463 
518	 0.157051925451717 
519	 0.158238415603735 
520	 0.159371833123477 
521	 0.160488434900843 
522	 0.161643432247784 
523	 0.162855619837566 
524	 0.163988109692991 
525	 0.165157323665823 
526	 0.166422783965599 
527	 0.167750580704886 
528	 0.168772437195275 
529	 0.169708495716684 
530	 0.170721597248367 
531	 0.171463463585579 
532	 0.172308905393631 
533	 0.17323282154729 
534	 0.174020726958764 
535	 0.17464065417959 
536	 0.175257483802235 
537	 0.17578528941013 
538	 0.175768897756465 
539	 0.175910665543974 
540	 0.176045609950321 
541	 0.175874872482465 
542	 0.175508576325762 
543	 0.175189461584109 
544	 0.174870566172272 
545	 0.174349663404852 
546	 0.174078225684369 
547	 0.173612105100563 
548	 0.172750038110647 
549	 0.171956197335856 
550	 0.171088477978023 
551	 0.170145732769761 
552	 0.169123998098528 
553	 0.167799360989355 
554	 0.166496837659293 
555	 0.165242380817871 
556	 0.163756751139603 
557	 0.162192680852854 
558	 0.160534661757542 
559	 0.158795427772864 
560	 0.157094838889963 
561	 0.155419700128581 
562	 0.153692836533765 
563	 0.151835845771134 
564	 0.150051344898265 
565	 0.14817037818248 
566	 0.146174277789326 
567	 0.144310220654592 
568	 0.142053772163317 
569	 0.139671487132148 
570	 0.137608077718707 
571	 0.135912838929227 
572	 0.133947104254564 
573	 0.131849847520923 
574	 0.130274233742838 
575	 0.128265316391321 
576	 0.126192376087828 
577	 0.124382075936644 
578	 0.122535613982199 
579	 0.120753495867066 
580	 0.118918441209297 
581	 0.116905618390076 
582	 0.115129164864734 
583	 0.113278216816314 
584	 0.111268844718208 
585	 0.109340454209367 
586	 0.106933034000079 
587	 0.104255211644495 
588	 0.101546632234297 
589	 9.87989372559054E-02 
590	 9.65274281103902E-02 
591	 9.47957600272171E-02 
592	 9.30655337326732E-02 
593	 0.091131667555484 
594	 8.89922739009453E-02 
595	 8.69058475676863E-02 
596	 8.54888322774014E-02 
597	 8.40625461725694E-02 
598	 8.27053743633961E-02 
599	 8.15971175757649E-02 
600	 8.01539749503476E-02 
601	 7.85893165819786E-02 
602	 7.71309537163828E-02 
603	 7.59824123068786E-02 
604	 7.48579189141205E-02 
605	 7.37899257073328E-02 
606	 7.27834498790336E-02 
607	 7.15935011880439E-02 
608	 7.04939432697838E-02 
609	 6.95893993030136E-02 
610	 6.88868734163755E-02 
611	 6.83054775195605E-02 
612	 6.76596563798313E-02 
613	 6.69530804496356E-02 
614	 6.64726441530502E-02 
615	 6.60732105324852E-02 
616	 6.55453938369147E-02 
617	 0.06483489675077 
618	 6.44867984180078E-02 
619	 0.064255109441982 
620	 6.40502166034474E-02 
621	 6.38920289842581E-02 
622	 6.34678881994546E-02 
623	 6.30251019594297E-02 
624	 6.27765051041553E-02 
625	 6.26705787708682E-02 
626	 6.24724171409415E-02 
627	 0.06222419106193 
628	 6.20558940807097E-02 
629	 6.17962814813333E-02 
630	 6.17011647346383E-02 
631	 6.17363834558264E-02 
632	 6.15413168746908E-02 
633	 6.15686573677342E-02 
634	 0.061573312970899 
635	 6.13493255559077E-02 
636	 6.12827402662964E-02 
637	 6.12182911028488E-02 
638	 6.09987965177712E-02 
639	 6.05701072089452E-02 
640	 6.08891349412238E-02 
641	 6.11087297646824E-02 
642	 6.08129328960822E-02 
643	 0.060660023778883 
644	 6.06444007623212E-02 
645	 6.04426433177198E-02 
646	 5.98099119154884E-02 
647	 5.94824410715449E-02 
648	 5.96447757881571E-02 
649	 6.00767910121649E-02 
650	 6.02504193000135E-02 
651	 6.01957893855018E-02 
652	 6.03078998913311E-02 
653	 6.07571533351734E-02 
654	 6.11334844089581E-02 
655	 6.12059824560008E-02 
656	 6.13675533391892E-02 
657	 6.21208252164148E-02 
658	 6.25666992181018E-02 
659	 0.063033077949748 
660	 6.37231225542915E-02 
661	 6.45774595875443E-02 
662	 6.49289663478301E-02 
663	 0.065263303163544 
664	 6.60484093491025E-02 
665	 0.066834323017724 
666	 6.75693780708972E-02 
667	 6.82477160298811E-02 
668	 6.88913992561106E-02 
669	 6.94903723378687E-02 
670	 7.04176342349297E-02 
671	 7.15099826781773E-02 
672	 0.07163882328431 
673	 7.23653772288117E-02 
674	 7.33566419180842E-02 
675	 7.39685633854474E-02 
676	 7.48397335991322E-02 
677	 7.56524179399532E-02 
678	 7.61983934802329E-02 
679	 7.64517786672548E-02 
680	 7.73837708305819E-02 
681	 7.82545406329479E-02 
682	 7.86542529793445E-02 
683	 7.94968359713931E-02 
684	 8.03250696531002E-02 
685	 8.07489526194271E-02 
686	 8.05750714820006E-02 
687	 8.07054608950085E-02 
688	 8.09309927036033E-02 
689	 8.13674906597912E-02 
690	 8.25501400520413E-02 
691	 8.34845671568117E-02 
692	 0.083557469782952 
693	 8.28582928268341E-02 
694	 0.083314303111258 
695	 8.42343029872628E-02 
696	 8.51881910839625E-02 
697	 8.59719630634711E-02 
698	 8.64562428134996E-02 
699	 8.62819461262696E-02 
700	 8.58180815507375E-02 
701	 8.64763149943967E-02 
702	 0.086950889424182 
703	 8.75133946839908E-02 
704	 8.83061026887152E-02 
705	 8.79834571401238E-02 
706	 8.76652279630346E-02 
707	 8.77876883072561E-02 
708	 8.82636177148958E-02 
709	 8.81759684151638E-02 
710	 8.81660095427974E-02 
711	 8.83948302877309E-02 
712	 8.81505532371863E-02 
713	 8.79673231623147E-02 
714	 8.74978101997291E-02 
715	 8.63420596805011E-02 
716	 8.47224515065488E-02 
717	 8.30334309238501E-02 
718	 8.17364214518429E-02 
719	 8.12368964646745E-02 
720	 8.20535255530332E-02 
721	 8.30385660715582E-02 
722	 8.34510316214124E-02 
723	 8.27822603130292E-02 
724	 8.17604010467472E-02 
725	 8.13438621730365E-02 
726	 8.19929981114601E-02 
727	 8.21403026887927E-02 
728	 8.25267899246426E-02 
729	 8.28780965195097E-02 
730	 8.25489434270346E-02 
731	 8.37210132879328E-02 
732	 0.085549388984056 
733	 8.70917987075267E-02 
734	 8.78847762563623E-02 
735	 8.86634625887124E-02 
736	 8.95155310121821E-02 
737	 0.090391073064796 
738	 9.15197610163264E-02 
739	 9.28754570700996E-02 
740	 9.42381441996245E-02 
741	 9.53797189507125E-02 
742	 9.69296389405702E-02 
743	 9.85054291001456E-02 
744	 9.99217335162216E-02 
745	 0.101417236817377 
746	 0.102199739764446 
747	 0.10296644179772 
748	 0.104420091771856 
749	 0.105844050066421 
750	 0.107331075289094 
751	 0.108629223469671 
752	 0.109433103857337 
753	 0.110668575787389 
754	 0.111754148611848 
755	 0.112576078039922 
756	 0.113862459179061 
757	 0.114706629371746 
758	 0.114841788187925 
759	 0.114054727045495 
760	 0.112263078435192 
761	 0.111017750856193 
762	 0.111296010824287 
763	 0.111657968332408 
764	 0.114271489137735 
765	 0.116735210752705 
766	 0.118476181420872 
767	 0.120289097981269 
768	 0.121235967775539 
769	 0.12182901530975 
770	 0.122466736755294 
771	 0.123074489708599 
772	 0.123468554262685 
773	 0.123767971258439 
774	 0.124188213248477 
775	 0.124803124610688 
776	 0.124854441347839 
777	 0.124600027050775 
778	 0.125095559608743 
779	 0.125391035133531 
780	 0.125554714683514 
781	 0.125790175099596 
782	 0.12627319944967 
783	 0.126420183709662 
784	 0.126252177872241 
785	 0.126100943767158 
786	 0.126692655277697 
787	 0.127039275342357 
788	 0.127058371967558 
789	 0.127315912837681 
790	 0.128092868896817 
791	 0.129143209691016 
792	 0.130321368683033 
793	 0.131698798706835 
794	 0.132795780245495 
795	 0.133522212030492 
796	 0.134088886905504 
797	 0.135255760674844 
798	 0.136271076315083 
799	 0.137485414855501 
800	 0.139295368265485 
801	 0.140161678742865 
802	 0.141224501488361 
803	 0.142843611330903 
804	 0.144693509562804 
805	 0.147072493762058 
806	 0.148868707865035 
807	 0.14987503875988 
808	 0.151235816091077 
809	 0.152216984426062 
810	 0.152772295050496 
811	 0.153125038399312 
812	 0.153897953949581 
813	 0.153794356730441 
814	 0.153794036785274 
815	 0.155667764903749 
816	 0.156979624597605 
817	 0.158862198356425 
818	 0.16145953390943 
819	 0.164025031701349 
820	 0.166097765163047 
821	 0.167845036807463 
822	 0.169723558697487 
823	 0.172348952781764 
824	 0.174569168299525 
825	 0.176777881713021 
826	 0.179145961615237 
827	 0.180241448738448 
828	 0.181603268845665 
829	 0.183572569105121 
830	 0.185982691357702 
831	 0.188680209316992 
832	 0.191602360676025 
833	 0.19414252259555 
834	 0.195795250468362 
835	 0.198744086761706 
836	 0.20182113791432 
837	 0.204351683009523 
838	 0.206422349472627 
839	 0.208367339032135 
840	 0.210755586655049 
841	 0.213612016754037 
842	 0.21607196709711 
843	 0.218083640009375 
844	 0.220150241824759 
845	 0.222554823526074 
846	 0.224468311060688 
847	 0.226404466632495 
848	 0.22835161680949 
849	 0.230071737730203 
850	 0.231290811481103 
851	 0.233249836319817 
852	 0.235441421884206 
853	 0.236497176940057 
854	 0.238400194526268 
855	 0.240670912574806 
856	 0.242676208861922 
857	 0.244049765279627 
858	 0.245800020559027 
859	 0.24784492700352 
860	 0.249832272797736 
861	 0.251307535841655 
862	 0.252847867362002 
863	 0.254586253697212 
864	 0.256227680061698 
865	 0.256644382661959 
866	 0.258271946470179 
867	 0.260497223502141 
868	 0.26203446241132 
869	 0.2633009995608 
870	 0.26452599762698 
871	 0.265680477680739 
872	 0.266703263796723 
873	 0.268164928894369 
874	 0.268939208103599 
875	 0.269514364582207 
876	 0.271163819882995 
877	 0.272140313864773 
878	 0.272707723643694 
879	 0.273301394142475 
880	 0.274298742694009 
881	 0.275710712154488 
882	 0.276288002670278 
883	 0.276408813366736 
884	 0.278468728371252 
885	 0.278909694721309 
886	 0.279034378825543 
887	 0.279806735000006 
888	 0.279947439049674 
889	 0.28038749512528 
890	 0.279997527497438 
891	 0.278354268127435 
892	 0.278105483817167 
893	 0.277589815165527 
894	 0.275357527589479 
895	 0.271170189356372 
896	 0.269447367656057 
897	 0.268670343357212 
898	 0.268145483914171 
899	 0.267903610277912 
900	 0.26969110283927 
901	 0.270533507074948 
902	 0.270683942509207 
903	 0.27156719627568 
904	 0.27276183037659 
905	 0.273043648416425 
906	 0.272336168412224 
907	 0.271223410577646 
908	 0.269871365755885 
909	 0.269067410962415 
910	 0.269111474632895 
911	 0.269718212467013 
912	 0.270845587966873 
913	 0.272079161570011 
914	 0.27168423543489 
915	 0.268371502759758 
916	 0.270924989266028 
917	 0.273966336377303 
918	 0.27504157037622 
919	 0.275687433028628 
920	 0.277616450991576 
921	 0.278434303072776 
922	 0.277257127882319 
923	 0.275155838586734 
924	 0.273800361685133 
925	 0.274231858484651 
926	 0.275381020665701 
927	 0.273104036425157 
928	 0.265555168484417 
929	 0.257665024889377 
930	 0.255653481586918 
931	 0.262413425461087 
932	 0.250722847041406 
933	 0.240219427923337 
934	 0.249894237609432 
935	 0.255203539207744 
936	 0.251295559513789 
937	 0.241604502820548 
938	 0.235168032363897 
939	 0.241445762888991 
940	 0.251995317676193 
941	 0.254372849618018 
942	 0.249720585200569 
943	 0.253114361104159 
944	 0.247959964626382 
945	 0.242383619478339 
946	 0.244107626890759 
947	 0.251118995120032 
948	 0.249919007708225 
949	 0.252833328912872 
950	 0.256612392519832 
951	 0.242790773186773 
952	 0.246140633975662 
953	 0.257411099890854 
954	 0.261980515645355 
955	 0.250660820496029 
956	 0.25406752599527 
957	 0.264462227927278 
958	 0.268980649166164 
959	 0.259958402591234 
960	 0.261218904709926 
961	 0.260328035281788 
962	 0.259872278161775 
963	 0.2703915861135 
964	 0.272215884375455 
965	 0.274579098583429 
966	 0.280354494510904 
967	 0.28630394519084 
968	 0.284905708832553 
969	 0.288152009467101 
970	 0.291200380125738 
971	 0.284745360265051 
972	 0.28876889379643 
973	 0.286881348599028 
974	 0.284105195492328 
975	 0.291341822931352 
976	 0.286975452961971 
977	 0.285839985835221 
978	 0.288043990644841 
979	 0.288955783187087 
980	 0.292504391174992 
981	 0.295732414559568 
982	 0.29723560428966 
983	 0.297302091550262 
984	 0.298331487143022 
985	 0.303662619215029 
986	 0.308057165311284 
987	 0.308020575091035 
988	 0.307809190417585 
989	 0.306926849836195 
990	 0.305882650137515 
991	 0.306287433148148 
992	 0.310279669505685 
993	 0.308119785974314 
994	 0.307258440838794 
995	 0.311201435612868 
996	 0.315558781506181 
997	 0.315510651317819 
998	 0.314530582976941 
999	 0.312948773647415 
1000	 0.309003133675297 
1001	 0.319421315374932 
1002	 0.319068490484847 
1003	 0.318638138548969 
1004	 0.319194055535511 
1005	 0.317761334069794 
1006	 0.320097636941636 
1007	 0.328361912141202 
1008	 0.330538407819917 
1009	 0.331374656952812 
1010	 0.330987545196733 
1011	 0.328903103689314 
1012	 0.325763712826402 
1013	 0.325956568993851 
1014	 0.326093883629709 
1015	 0.324359909272892 
1016	 0.323780779628034 
1017	 0.324713770306988 
1018	 0.328087689982161 
1019	 0.328553311223786 
1020	 0.328901226678884 
1021	 0.329099916962752 
1022	 0.326762632519912 
1023	 0.325493798918665 
1024	 0.32457867754715 
1025	 0.325829386196848 
1026	 0.325885404058538 
1027	 0.325743546404316 
1028	 0.326927177205232 
1029	 0.326916435175637 
1030	 0.327872044898548 
1031	 0.329633902169648 
1032	 0.329944288318087 
1033	 0.329461500719566 
1034	 0.329615595040201 
1035	 0.329776395156831 
1036	 0.329505493615827 
1037	 0.328876902337482 
1038	 0.329979174629805 
1039	 0.329941045040969 
1040	 0.326959037430698 
1041	 0.325978700424664 
1042	 0.32579869465438 
1043	 0.326017992064874 
1044	 0.326404034222821 
1045	 0.327141060468034 
1046	 0.328316679410804 
1047	 0.329006434599447 
1048	 0.329817410037826 
1049	 0.330669580016334 
1050	 0.331066331278246 
1051	 0.331978566800811 
1052	 0.332817547454013 
1053	 0.335587927476737 
1054	 0.33678211824199 
1055	 0.338354548326682 
1056	 0.33866485498097 
1057	 0.335768593067545 
1058	 0.335038197898209 
1059	 0.334027817669463 
1060	 0.333671141625213 
1061	 0.334176029702952 
1062	 0.333120366816796 
1063	 0.333764722153431 
1064	 0.333854303197058 
1065	 0.333995779170149 
1066	 0.33361547603636 
1067	 0.333025520829004 
1068	 0.329613991703681 
1069	 0.327491306080677 
1070	 0.327896394178475 
1071	 0.326924754881313 
1072	 0.328668317850862 
1073	 0.331663050684678 
1074	 0.330498194236766 
1075	 0.330320072285976 
1076	 0.330846613763705 
1077	 0.327650236525403 
1078	 0.325509564171 
1079	 0.324910222371543 
1080	 0.325610438668453 
1081	 0.325541245800964 
1082	 0.326107331835118 
1083	 0.326544315828771 
1084	 0.325958092812754 
1085	 0.323977355936077 
1086	 0.324702736286345 
1087	 0.325267441125417 
1088	 0.32377352217382 
1089	 0.325357275406694 
1090	 0.325500026367423 
1091	 0.32392642789298 
1092	 0.323839368519971 
1093	 0.324869314682802 
1094	 0.323652381917837 
1095	 0.320695283732612 
1096	 0.316216038659078 
1097	 0.313775336861746 
1098	 0.309132863404761 
1099	 0.305528273809009 
1100	 0.306073302432948 
1101	 0.30418373886764 
1102	 0.302544931007378 
1103	 0.30069581394014 
1104	 0.297582158973832 
1105	 0.294483697303547 
1106	 0.288708195706772 
1107	 0.282073628740698 
1108	 0.27759160804017 
1109	 0.278492474420817 
1110	 0.279767298300007 
1111	 0.287369217868179 
1112	 0.290508301330501 
1113	 0.29515496904624 
1114	 0.292043065201622 
1115	 0.287323509691515 
1116	 0.282909292652707 
1117	 0.268698160421849 
1118	 0.258433751143945 
1119	 0.239396862556 
1120	 0.205636153302668 
1121	 0.187598689071095 
1122	 0.174035218544038 
1123	 0.171359978103035 
1124	 0.158484360946325 
1125	 0.146606210732743 
1126	 0.162471750340074 
1127	 0.180365577479838 
1128	 0.234007738400136 
1129	 0.246299702881975 
1130	 0.256137536161745 
1131	 0.21429616996594 
1132	 0.194539240818241 
1133	 0.192600151599517 
1134	 0.196167620952265 
1135	 0.227304848400194 
1136	 0.24889209461465 
1137	 0.240833090831034 
1138	 0.23094576925585 
1139	 0.24014044895529 
1140	 0.236145945109287 
1141	 0.230644000085289 
1142	 0.23421253639883 
1143	 0.242813055286807 
1144	 0.242001692765132 
1145	 0.254539454931889 
1146	 0.254451638611894 
1147	 0.236883715455066 
1148	 0.229930288481026 
1149	 0.233298239426746 
1150	 0.227317500383276 
1151	 0.240516875087644 
1152	 0.254150900375767 
1153	 0.261466182135247 
1154	 0.265858881653515 
1155	 0.259149045997174 
1156	 0.256107041846776 
1157	 0.263511078602489 
1158	 0.270572041331719 
1159	 0.27377321961136 
1160	 0.279301570090184 
1161	 0.283081871353149 
1162	 0.281934276055364 
1163	 0.284178766879084 
1164	 0.289621642516698 
1165	 0.29358480952287 
1166	 0.293390049179456 
1167	 0.29343599570549 
1168	 0.2915886364277 
1169	 0.289395714894106 
1170	 0.289706227844999 
1171	 0.292762197068385 
1172	 0.295509914129845 
1173	 0.296769846235399 
1174	 0.298806765362473 
1175	 0.299284862464756 
1176	 0.29904648674092 
1177	 0.298326875847838 
1178	 0.29723721255696 
1179	 0.294506368444109 
1180	 0.292708613351978 
1181	 0.290664492219214 
1182	 0.28957638986401 
1183	 0.289090752004145 
1184	 0.288861475202644 
1185	 0.288871791667407 
1186	 0.290025364497661 
1187	 0.291432495161999 
1188	 0.292991453250408 
1189	 0.295104075912635 
1190	 0.295061646887758 
1191	 0.296737594287587 
1192	 0.297606528010282 
1193	 0.298611589609551 
1194	 0.300722051629087 
1195	 0.301836843372608 
1196	 0.30212506160998 
1197	 0.302770981740265 
1198	 0.303497538115215 
1199	 0.302353658239182 
1200	 0.299630803529609 
1201	 0.298632691933391 
1202	 0.297252779850513 
1203	 0.295825303688348 
1204	 0.296893490163172 
1205	 0.300279433407782 
1206	 0.300649798110306 
1207	 0.300802886413801 
1208	 0.301643725710258 
1209	 0.297598748481365 
1210	 0.296126505670952 
1211	 0.294878830616177 
1212	 0.295198025908555 
1213	 0.296383526425136 
1214	 0.297628935854977 
1215	 0.300407265355677 
1216	 0.301056144826488 
1217	 0.300122284414037 
1218	 0.300862806056184 
1219	 0.302095164542404 
1220	 0.302354009972073 
1221	 0.302775062664712 
1222	 0.30346170557506 
1223	 0.303518668696217 
1224	 0.303346585148428 
1225	 0.304229243063732 
1226	 0.30595462350716 
1227	 0.305839578023003 
1228	 0.305450260058012 
1229	 0.306003840896162 
1230	 0.306775656893345 
1231	 0.307158707998649 
1232	 0.307985318429729 
1233	 0.308691270305989 
1234	 0.309012961636366 
1235	 0.309455109142261 
1236	 0.310240534715706 
1237	 0.310820378977718 
1238	 0.310640430217617 
1239	 0.311144590098567 
1240	 0.31291845666438 
1241	 0.313522166450562 
1242	 0.313858776130068 
1243	 0.314014648564958 
1244	 0.312738420448874 
1245	 0.31198191449429 
1246	 0.312453879075066 
1247	 0.312306712076016 
1248	 0.312181800401962 
1249	 0.312242102873302 
1250	 0.312344758187409 
1251	 0.312160028787054 
1252	 0.312451252427181 
1253	 0.313775467191354 
1254	 0.313721180019697 
1255	 0.313556197578053 
1256	 0.312172180808255 
1257	 0.308484506969277 
1258	 0.306784551185981 
1259	 0.304696511609751 
1260	 0.303581535619518 
1261	 0.304351177973613 
1262	 0.30485399421802 
1263	 0.306371889240766 
1264	 0.306888686101104 
1265	 0.305598041174038 
1266	 0.305424436400123 
1267	 0.303191800696699 
1268	 0.299660532969502 
1269	 0.298991399694143 
1270	 0.299607825724364 
1271	 0.300336060456034 
1272	 0.302995331623886 
1273	 0.304376187659323 
1274	 0.306135629002178 
1275	 0.30653103092833 
1276	 0.30567455177362 
1277	 0.305413798619953 
1278	 0.304146664379671 
1279	 0.303836538473769 
1280	 0.304494952936986 
1281	 0.305037701193504 
1282	 0.306271443203229 
1283	 0.306512147010607 
1284	 0.306234669005175 
1285	 0.306067266277643 
1286	 0.304797762993475 
1287	 0.304717041339884 
1288	 0.304571885353984 
1289	 0.303371996099462 
1290	 0.302921739631772 
1291	 0.302466464570407 
1292	 0.301835190726057 
1293	 0.301569913537151 
1294	 0.301121483037166 
1295	 0.300624313073804 
1296	 0.299207332263083 
1297	 0.297086707426442 
1298	 0.295563757797606 
1299	 0.292847268732161 
1300	 0.291572665575155 
1301	 0.291456406432489 
1302	 0.291639454595649 
1303	 0.29351734981181 
1304	 0.293880284451464 
1305	 0.294542036712154 
1306	 0.294323775966472 
1307	 0.292594739078249 
1308	 0.290073215450699 
1309	 0.289514207414366 
1310	 0.28593944976793 
1311	 0.281968111160781 
1312	 0.280151724339385 
1313	 0.278921721338179 
1314	 0.278947897414988 
1315	 0.278048965134475 
1316	 0.278226681002233 
1317	 0.277136413389194 
1318	 0.274035506772922 
1319	 0.272718964026519 
1320	 0.272801324955696 
1321	 0.272249574023116 
1322	 0.272284993025963 
1323	 0.270951505476106 
1324	 0.26819312491194 
1325	 0.266242181377267 
1326	 0.263062889509481 
1327	 0.261234381041132 
1328	 0.26307740947896 
1329	 0.260618277438306 
1330	 0.251963363667181 
1331	 0.248526084040731 
1332	 0.246567910483225 
1333	 0.242685273180455 
1334	 0.247011771268942 
1335	 0.251205281629145 
1336	 0.253941264571311 
1337	 0.253012940392639 
1338	 0.255594552949576 
1339	 0.263251960608799 
1340	 0.263658291123907 
1341	 0.256262854044704 
1342	 0.259566470584311 
1343	 0.269908653606857 
1344	 0.272267615052384 
1345	 0.28271109766324 
1346	 0.290672008097013 
1347	 0.258098647858796 
1348	 0.260115330465263 
1349	 0.367513703141656 
1350	 0.473488348918406 
1351	 0.614574174698105 
1352	 0.85637615703654 
1353	 0.783212560466112 
1354	 0.49929499908905 
1355	-2.49919221324965 
1356	-9.11808697078582 
1357	-1.32746224138036 
1358	-0.875751601677668 
1359	 8.99842272430015E-02 
1360	 1.10069555623123 
1361	 2.43826611666 
1362	 1.78330217011801 
1363	 0.829537834614605 
1364	-0.353923341387059 
1365	-0.405116304885673 
1366	-0.304308031826392 
1367	-0.265520382791897 
1368	 3.36987721591818E-02 
1369	 6.53842291821994E-02 
1370	-0.564597222819784 
1371	-0.524083747222888 
1372	 6.68081446005304 
1373	 4.97597307810503 
1374	 1.03347354454484 
1375	 1.26457573335218 
1376	 1.81840448092856 
1377	 1.80511823556189 
1378	 2.43631905950524 
1379	 2.85881338531938 
1380	 2.29532410582998 
1381	 0.63208838125265 
1382	 0.177379917882121 
1383	 6.78870265403019E-02 
1384	-8.29397367990253E-02 
1385	-9.94378986267939E-02 
1386	 0.061575981262747 
1387	 0.220339587199904 
1388	 0.329819721717995 
1389	 40.0012290077997 
1390	 1.05246755209527 
1391	 1.04923516465957 
1392	 0.970193260472066 
1393	-0.727666139266607 
1394	-9.37215842462368 
1395	 0.583226309475906 
1396	-0.154035144123598 
1397	-1.14060181376293 
1398	-1.14123180482715 
1399	-0.933909502715641 
1400	-0.701447939029947 
1401	 1.04885348393532 
1402	 4.28334251026345 
1403	-24.8335603614366 
1404	-26.4178341071997 
1405	 2.67240106836042 
1406	 1.66914596267882 
1407	 1.04762371598669 
1408	 0.790066698532683 
1409	 1.31198105314384 
1410	 0.925430729715116 
1411	-0.147169875057005 
1412	-0.413912716566931 
1413	-0.471156204092981 
1414	-0.392774105585107 
1415	 4.77199597081369E-02 
1416	 0.130425251306599 
1417	 6.60541388319757E-02 
1418	 7.24252444615435E-02 
1419	 8.76692583705735E-02 
1420	-6.35352036270764E-02 
1421	-0.166659305131778 
1422	-0.266891413386351 
1423	-0.250996651767 
1424	-0.319653952467568 
1425	-0.050848817655641 
1426	 0.70815501443064 
1427	 0.938647767732183 
1428	 1.07141701791672 
1429	 1.05814478927179 
1430	 0.614489942156398 
1431	 0.44735936475848 
1432	 0.211870585017858 
1433	 2.43525136232478E-02 
1434	 1.47983379245911E-02 
1435	 5.89277335454832E-03 
1436	-1.16590093673564E-02 
1437	 0.331428353210186 
1438	 6.06551376075105 
1439	 3.44937742013049 
1440	 1.8114825202963 
1441	 1.28745104009374 
1442	 0.495021953149902 
1443	 0.288478513020587 
1444	 0.192462972605215 
1445	-1.69981375824689E-02 
1446	-0.467073508196509 
1447	-0.470746631582546 
1448	-0.3011880382036 
1449	-0.223051193962294 
1450	-5.21756395030881E-02 
1451	 6.63047111717849E-02 
1452	 0.158000612474764 
1453	 0.193127490916315 
1454	 0.207240819988321 
1455	 0.265253738328226 
1456	 0.234716855930204 
1457	 0.164385886607801 
1458	 0.15136157671473 
1459	 0.147730032099484 
1460	 0.140786210145318 
1461	 0.145296758618986 
1462	 0.150311499537813 
1463	 0.160107522305515 
1464	 0.145375915948905 
1465	 0.120827200021327 
1466	 0.103361185215699 
1467	 0.037068810143084 
1468	 0.032254484327565 
1469	 0.099897539654584 
1470	 0.12455741340173 
1471	 0.149322762379917 
1472	 0.166606791044541 
1473	 0.172596566700419 
1474	 0.170068366739875 
1475	 0.162934574628448 
1476	 0.160175991582961 
1477	 0.160124236858076 
1478	 0.145665908005612 
1479	 0.11083328090204 
1480	 0.113877552836109 
1481	 0.103496944436077 
1482	 0.131104924149631 
1483	 0.215545677684872 
1484	 0.241625706389323 
1485	 0.259349069263704 
1486	 0.257910172258898 
1487	 0.228502773491776 
1488	 0.218673951731829 
1489	 0.210529545100247 
1490	 0.206577248047163 
1491	 0.20457512779202 
1492	 0.206939765523719 
1493	 0.214843302168506 
1494	 0.217500538389498 
1495	 0.224226566773047 
1496	 0.223899622591385 
1497	 0.213496113925922 
1498	 0.210081127027998 
1499	 0.207853501116393 
1500	 0.204957248793884 
1501	 0.206267839483187 
1502	 0.213781412141549 
1503	 0.22107370127086 
1504	 0.226247841664304 
1505	 0.229231713013156 
1506	 0.232719001713003 
1507	 0.231783430171615 
1508	 0.226434442832521 
1509	 0.22503541345044 
1510	 0.222036953035289 
1511	 0.224030539145156 
1512	 0.230364893245364 
1513	 0.232223138096179 
1514	 0.235024425453448 
1515	 0.235376822553617 
1516	 0.23201702470106 
1517	 0.231340974271839 
1518	 0.230701636655926 
1519	 0.231734906951384 
1520	 0.233656443522489 
1521	 0.236211996895722 
1522	 0.24158688343295 
1523	 0.243220184070878 
1524	 0.244450526492246 
1525	 0.243657347290284 
1526	 0.238691318372021 
1527	 0.23736145515519 
1528	 0.236902470121253 
1529	 0.236016284944438 
1530	 0.23640728894396 
1531	 0.236629527800721 
1532	 0.236001631674688 
1533	 0.236022862383296 
1534	 0.23758456080808 
1535	 0.237609586458887 
1536	 0.237219065981134 
1537	 0.236197722878735 
1538	 0.232016465057414 
1539	 0.23226884925381 
1540	 0.235782019235434 
1541	 0.236559879934718 
1542	 0.23951201955806 
1543	 0.240124622869965 
1544	 0.236396071035023 
1545	 0.23501971920267 
1546	 0.234354796299799 
1547	 0.234076146399226 
1548	 0.234671226656503 
1549	 0.234923693228526 
1550	 0.234676134067077 
1551	 0.235748731924457 
1552	 0.238945846072965 
1553	 0.23977341455665 
1554	 0.240521488314073 
1555	 0.240602866372038 
1556	 0.237901751429247 
1557	 0.235873517928078 
1558	 0.233262875104082 
1559	 0.232452458442625 
1560	 0.232560618335783 
1561	 0.232971484106657 
1562	 0.236313956524479 
1563	 0.237060107193921 
1564	 0.237392980924111 
1565	 0.237744603460206 
1566	 0.236280896824451 
1567	 0.235787787240482 
1568	 0.235426423257951 
1569	 0.233687528300521 
1570	 0.231089420687116 
1571	 0.228995974428791 
1572	 0.227391764259946 
1573	 0.226367517668974 
1574	 0.226834742441532 
1575	 0.22942217333469 
1576	 0.230008633787757 
1577	 0.229135321349617 
1578	 0.229038837924281 
1579	 0.226381335728876 
1580	 0.226347454560895 
1581	 0.227087734048044 
1582	 0.226311670153168 
1583	 0.227332839747005 
1584	 0.227922262282062 
1585	 0.22834812099964 
1586	 0.228972668918095 
1587	 0.230254787874033 
1588	 0.231799658785455 
1589	 0.233559992125305 
1590	 0.234110697487072 
1591	 0.235163133050606 
1592	 0.234533903790862 
1593	 0.23155670702025 
1594	 0.23084574506402 
1595	 0.230946863322322 
1596	 0.230452521811793 
1597	 0.22982893440934 
1598	 0.23009588514585 
1599	 0.230248816474281 
1600	 0.230879837219574 
1601	 0.233465371261815 
1602	 0.234093972209885 
1603	 0.234438683166238 
1604	 0.232656749582066 
1605	 0.228681735948698 
1606	 0.226037170456057 
1607	 0.221073997255038 
1608	 0.220907664440866 
1609	 0.224349973357733 
1610	 0.224986261688536 
1611	 0.227401714364296 
1612	 0.227215292118649 
1613	 0.224368150521026 
1614	 0.223423610935304 
1615	 0.222053864751013 
1616	 0.22129544684233 
1617	 0.221195795274372 
1618	 0.221347151798388 
1619	 0.221624071270814 
1620	 0.223533464837351 
1621	 0.227258737292153 
1622	 0.227537941876218 
1623	 0.228189547876827 
1624	 0.225821540526795 
1625	 0.218431644606895 
1626	 0.216656508109955 
1627	 0.216379745130146 
1628	 0.216174644316021 
1629	 0.218870717345658 
1630	 0.219499227272544 
1631	 0.218779180556458 
1632	 0.218383912359008 
1633	 0.218049043335699 
1634	 0.217750024285213 
1635	 0.217210211198251 
1636	 0.215860071901903 
1637	 0.214394403019423 
1638	 0.21373115937218 
1639	 0.212610895298805 
1640	 0.211215837634018 
1641	 0.211761889152463 
1642	 0.207967248762476 
1643	 0.199335988711235 
1644	 0.197578495609375 
1645	 0.197105099806211 
1646	 0.196421386613071 
1647	 0.200524841147726 
1648	 0.19990619500433 
1649	 0.195235297366341 
1650	 0.193674892293907 
1651	 0.193039732921701 
1652	 0.192407527636509 
1653	 0.19330533947128 
1654	 0.192170177602073 
1655	 0.189239722668841 
1656	 0.187732481130969 
1657	 0.185698499767275 
1658	 0.18343110025818 
1659	 0.181863738045613 
1660	 0.182492430080097 
1661	 0.184021247686819 
1662	 0.185761260763892 
1663	 0.184688747840806 
1664	 0.185263177957881 
1665	 0.186443347994316 
1666	 0.187053421181339 
1667	 0.192215082099999 
1668	 0.193984759555131 
1669	 0.190027193069095 
1670	 0.189094190795696 
1671	 0.187055569411624 
1672	 0.183128986589247 
1673	 0.183381740752338 
1674	 0.183969460983041 
1675	 0.183250343062793 
1676	 0.184827961235063 
1677	 0.184040434081407 
1678	 0.179850065251366 
1679	 0.177905961152352 
1680	 0.17997456253138 
1681	 0.181536115019915 
1682	 0.181616215324838 
1683	 0.182780481129473 
1684	 0.180619409143102 
1685	 0.177900898663781 
1686	 0.178591818151369 
1687	 0.179911442205185 
1688	 0.182268589326688 
1689	 0.184441787630716 
1690	 0.186119155077667 
1691	 0.188440110529711 
1692	 0.186790553595964 
1693	 0.182737853080621 
1694	 0.178676206973195 
1695	 0.175273731603198 
1696	 0.177551061324998 
1697	 0.177541961727624 
1698	 0.178136287369802 
1699	 0.180678372033319 
1700	 0.177754027280995 
1701	 0.180102078044116 
1702	 0.183306208777683 
1703	 0.183650809731441 
1704	 0.187897139714825 
1705	 0.188346011684991 
1706	 0.188352877659996 
1707	 0.191792999109631 
1708	 0.188002098543166 
1709	 0.182277845178429 
1710	 0.182469997563549 
1711	 0.182097994431842 
1712	 0.181562597040228 
1713	 0.183277276956502 
1714	 0.181575213142739 
1715	 0.17799810008458 
1716	 0.177193438823024 
1717	 0.176422630321013 
1718	 0.174327769966797 
1719	 0.172884718627699 
1720	 0.17489190723135 
1721	 0.176343078651801 
1722	 0.179536327435509 
1723	 0.183053352031682 
1724	 0.187157974936882 
1725	 0.186535099541694 
1726	 0.184323690619427 
1727	 0.182603276875825 
1728	 0.177308583369014 
1729	 0.17572977853775 
1730	 0.178640058211097 
1731	 0.177049547748957 
1732	 0.17023873907015 
1733	 0.166292458077348 
1734	 0.161275367684506 
1735	 0.160125074953184 
1736	 0.166112624095449 
1737	 0.171153408842708 
1738	 0.178246790435666 
1739	 0.1760441940957 
1740	 0.169609698634091 
1741	 0.1649527697447 
1742	 0.167586710010683 
1743	 0.175297836148511 
1744	 0.180981898479488 
1745	 0.181968121575441 
1746	 0.178641209830544 
1747	 0.177726249951817 
1748	 0.176546615841425 
1749	 0.173593519069513 
1750	 0.170556604071636 
1751	 0.168691074877771 
1752	 0.170639551126424 
1753	 0.170960948695591 
1754	 0.16971678356218 
1755	 0.167057677904929 
1756	 0.163540851381162 
1757	 0.162188105772104 
1758	 0.172416081352397 
1759	 0.185688921344931 
1760	 0.19789344334349 
1761	 0.210467327035513 
1762	 0.209332604621441 
1763	 0.198502249773488 
1764	 0.185015227789785 
1765	 0.171320030707011 
1766	 0.155709458002355 
1767	 0.150721316390356 
1768	 0.143246011078297 
1769	 0.126532613526803 
1770	 0.126575373969169 
1771	 0.135092118660016 
1772	 0.149707702955455 
1773	 0.163904471548739 
1774	 0.178954391894125 
1775	 0.177389886159084 
1776	 0.163117745033669 
1777	 0.172974946150923 
1778	 0.172355076146313 
1779	 0.179741678333266 
1780	 0.177461853089512 
1781	 0.168491819325911 
1782	 0.168257030352749 
1783	 0.179263555993057 
1784	 0.182690488180142 
1785	 0.18831067410604 
1786	 0.191608882646957 
1787	 0.190932522696141 
1788	 0.211366966408397 
1789	 0.211841863225632 
1790	 0.169908695354825 
1791	 0.125438253018934 
1792	 0.100799661102682 
1793	 0.110620616891907 
1794	 0.203859731984326 
1795	 0.310560510491927 
1796	 0.299918299020134 
1797	 0.234831353752769 
1798	 0.103602172304898 
1799	-5.17886432098541E-02 
1800	 2.91578856376913E-02 
1801	 1.25162436215637 
1802	 1.50064363040139 
1803	 2.66215991324042 
1804	 3.02228292611773 
1805	 2.61856700669972 
1806	 1.5735207062998 
1807	 1.1854752228251 
1808	 0.660601776231211 
1809	 0.577255477576903 
1810	 0.667583030538258 
1811	 0.758340146956044 
1812	 0.998212441505608 
1813	 1.1002466843579 
1814	 1.15293747008769 
1815	 1.26947611288756 
1816	 1.37471543382792 
1817	 1.46339039925516 
1818	 1.58613024859362 
1819	 2.13052604654226 
1820	 2.34180521655861 
1821	 2.00429961528792 
1822	 1.89701097065961 
1823	 1.89614203067221 
1824	 1.65612742927276 
1825	 1.22709474019081 
1826	 1.01081909632864 
1827	 0.952492986179004 
1828	 0.983269172526846 
1829	 0.933911772118069 
1830	 0.9804506759903 
1831	 0.944288153003486 
1832	 0.671722078200836 
1833	 0.643228517794508 
1834	 0.854246338218908 
1835	 0.924888688399672 
1836	 0.994022138974438 
1837	 1.21465193637019 
1838	 1.26460641660667 
1839	 1.08234777758615 
1840	 1.03555435982238 
1841	 0.920647859453358 
1842	 0.975513474626163 
1843	 1.28842056269832 
1844	 1.38825450823816 
1845	 1.68582401907362 
1846	 1.6572805181163 
1847	 1.62147009703175 
1848	 1.25558826169153 
1849	 1.11376906167542 
1850	 1.02507581851425 
1851	 0.971672545799069 
1852	 0.952452481929866 
1853	 0.849048060008527 
1854	 0.591697269252046 
1855	 0.606759395168832 
1856	 0.716836672735195 
1857	 0.914843570467248 
1858	 1.06886452466641 
1859	 2.0524876066382 
1860	 2.03343371398771 
1861	 1.03386652753713 
1862	 0.913368874270939 
1863	 0.773622804410753 
1864	 0.732350769875034 
1865	 1.16386844297818 
1866	 1.45433983328702 
1867	 1.6256455084278 
1868	 1.54799722029019 
1869	 1.39907975203801 
1870	 1.07697240322425 
1871	 0.951109690102768 
1872	 0.782921390269604 
1873	 0.701872501939457 
1874	 0.631795580013539 
1875	 0.583981602462894 
1876	 0.502140694822187 
1877	 0.568789853851027 
1878	 0.679369495320174 
1879	 0.949466850361742 
1880	 1.0060819098503 
1881	 1.10305920273307 
1882	 1.12553802575897 
1883	 0.807090072514701 
1884	 0.754169563723331 
1885	 0.920869832685984 
1886	 0.968294622310057 
1887	 1.06034788380302 
1888	 1.08557133916553 
1889	 1.12764776266214 
1890	 1.32002645133443 
1891	 1.2071125282513 
1892	 0.932185029418822 
1893	 0.793755835967028 
1894	 0.559871228851069 
1895	 0.534611904242556 
1896	 0.65692779135442 
1897	 0.681949891208609 
1898	 0.704888828762293 
1899	 0.790280085913189 
1900	 0.78267016320268 
1901	 0.63993563026346 
1902	 0.634041926634089 
1903	 0.684213030684727 
1904	 0.705854875047324 
1905	 0.816123818765316 
1906	 0.831365909186868 
1907	 0.79693709197816 
1908	 0.683606278619373 
1909	 0.589560709757588 
1910	 0.498769551877788 
1911	 0.538687770139154 
1912	 0.658709026422347 
1913	 0.73867169039053 
1914	 0.928682005697923 
1915	 1.00686690243868 
1916	 1.07639908876736 
1917	 1.20321643397856 
1918	 1.30573631095841 
1919	 1.29893082295688 
1920	 1.55880343949876 
1921	 1.33818888793473 
1922	 1.22016390463974 
1923	 0.987846517946161 
1924	 0.927794108331298 
1925	 0.830703893285865 
1926	 0.899216414256779 
1927	 1.35454988536981 
1928	 1.46970060108606 
1929	 1.4794521777631 
1930	 1.40428617454018 
1931	 1.16319431256651 
1932	 1.17404703039372 
1933	 1.43307498274136 
1934	 1.62705213386986 
1935	 1.52946068968834 
1936	 1.04231312355169 
1937	 0.833570391948154 
1938	 0.552602059209551 
1939	 0.466010377254701 
1940	 0.450866999142339 
1941	 0.626761656982907 
1942	 0.729556879276961 
1943	 0.756208653469839 
1944	 0.819466312673931 
1945	 0.861702613653156 
1946	 0.972124926162584 
1947	 1.21070023517325 
1948	 1.42372458542861 
1949	 1.94363345747125 
1950	 1.98512119745153 
1951	 1.55439657526693 
1952	 1.34838786077811 
1953	 1.06736485765364 
1954	 0.852915867211483 
1955	 0.721166678458217 
1956	 0.669617103768144 
1957	 0.737402794328964 
1958	 0.725091262963612 
1959	 0.689359779327138 
1960	 0.689816094705721 
1961	 0.64734603809305 
1962	 0.519911072823484 
1963	 0.467268729852942 
1964	 0.431139817102646 
1965	 0.377387541837907 
1966	 0.387250901612676 
1967	 0.398842738349022 
1968	 0.492851792169933 
1969	 0.617658744007869 
1970	 0.667979486328571 
1971	 0.716059835063682 
1972	 0.746676506145773 
1973	 0.65549200029248 
1974	 0.65608836738625 
1975	 0.721816362904736 
1976	 0.71656422123516 
1977	 0.642094129598445 
1978	 0.709889626516605 
1979	 0.735811317738306 
1980	 0.761480343523685 
1981	 0.796648623447354 
1982	 0.691757709929404 
1983	 0.675498446400666 
1984	 0.630523284210412 
1985	 0.616214137667293 
1986	 0.701637308687092 
1987	 0.710927580184082 
1988	 0.682914804722078 
1989	 0.637095347127903 
1990	 0.588800712845798 
1991	 0.457042323547542 
1992	 0.387529077584047 
1993	 0.394918567583864 
1994	 0.403286768407398 
1995	 0.503301991710578 
1996	 0.559057161199593 
1997	 0.653407721746053 
1998	 0.672055812596227 
1999	 0.62735121771437 
2000	 0.637182316086701 
2001	 0.60619897055767 
2002	 0.621617042424096 
2003	 0.911323248992574 
2004	 0.90551175069033 
2005	 0.720394565221127 
2006	 0.66036328816407 
2007	 0.527095787070119 
2008	 0.51655415108967 
2009	 0.515756870585869 
2010	 0.599325953225861 
2011	 0.644731266871762 
2012	 0.666981772944746 
2013	 0.709952599290374 
2014	 0.797955984163493 
2015	 0.801752640449797 
2016	 0.80906614171706 
2017	 0.875877106840094 
2018	 0.820431173283586 
2019	 0.739326095445283 
2020	 0.668851134600978 
2021	 0.611913986845945 
2022	 0.707755719798907 
2023	 0.846752195651837 
2024	 0.813711121965727 
2025	 0.744443666626612 
2026	 0.660539892892455 
2027	 0.494647376652933 
2028	 0.360400228588862 
2029	 0.296002409920465 
2030	 0.262726933434037 
2031	 0.241698149457737 
2032	 0.205517088131328 
2033	 0.191760714817889 
2034	 0.202638516353621 
2035	 0.232360177530319 
2036	 0.266287718538156 
2037	 0.284848983556385 
2038	 0.3248335561978 
2039	 0.32582322530186 
2040	 0.260229253804656 
2041	 0.264969596004588 
2042	 0.292745602544893 
2043	 0.311722231160961 
2044	 0.381937702109486 
2045	 0.45470079474558 
2046	 0.437687335776905 
2047	 0.416585820608689 
2048	 0.400717395160296 
2049	 0.364608433042327 
2050	 0.380439938652099 
2051	 0.434812185176354 
2052	 0.484330668442883 
2053	 0.590788052313923 
2054	 0.627317329200412 
2055	 0.637662709594013 
2056	 0.633125737213176 
2057	 0.58636268304057 
2058	 0.548557904768629 
2059	 0.564286394450281 
2060	 0.576261001174348 
2061	 0.600736171850104 
2062	 0.574272399694277 
2063	 0.481492274779301 
2064	 0.413428182345743 
2065	 0.35093119329742 
2066	 0.293156842817904 
2067	 0.266871522402793 
2068	 0.299298516609815 
2069	 0.308659467141179 
2070	 0.298966503300622 
2071	 0.33606825611895 
2072	 0.400508777623194 
2073	 0.447321259461215 
2074	 0.460468138923026 
2075	 0.431229565563174 
2076	 0.39132973007961 
2077	 0.363301684660714 
2078	 0.389856620826042 
2079	 0.431245920899248 
2080	 0.420911617980984 
2081	 0.421336681185377 
2082	 0.391384197294757 
2083	 0.290845374922611 
2084	 0.254159845141976 
2085	 0.231409268721672 
2086	 0.209637810146214 
2087	 0.207785792066376 
2088	 0.294229975456451 
2089	 0.347563712106465 
2090	 0.362629133005756 
2091	 0.375089546344612 
2092	 0.37740928471522 
2093	 0.369706097304275 
2094	 0.373799601719704 
2095	 0.397545099643117 
2096	 0.404036957063378 
2097	 0.404666966730561 
2098	 0.385268217225721 
2099	 0.366852097858546 
2100	 0.311929051915366 
2101	 0.302764428910502 
2102	 0.311488032711091 
2103	 0.351073176719676 
2104	 0.358807089931462 
2105	 0.381615535330818 
2106	 0.379134403446906 
2107	 0.315889464292115 
2108	 0.293151911704261 
2109	 0.293654552126049 
2110	 0.283279467009487 
2111	 0.311544485877413 
2112	 0.324302998240779 
2113	 0.30467681012084 
2114	 0.300187880724368 
2115	 0.287839245037622 
2116	 0.27274201767295 
2117	 0.262414140128835 
2118	 0.261787987103233 
2119	 0.255134009833474 
2120	 0.258804395904473 
2121	 0.285987606435593 
2122	 0.330524904880906 
2123	 0.364488538708849 
2124	 0.370516154126079 
2125	 0.347005510976578 
2126	 0.296151832523826 
2127	 0.252023404647461 
2128	 0.23875218413007 
2129	 0.242361504507809 
2130	 0.237796652585253 
2131	 0.254426331454283 
2132	 0.262554549672228 
2133	 0.253086392866083 
2134	 0.226788460824845 
2135	 0.229500711342134 
2136	 0.227427536735968 
2137	 0.231219339637395 
2138	 0.25757368918493 
2139	 0.279003517557178 
2140	 0.277667437453421 
2141	 0.256913831772329 
2142	 0.257105840704871 
2143	 0.272128476710005 
2144	 0.281036810757005 
2145	 0.290026406017605 
2146	 0.302800934737199 
2147	 0.26744444560201 
2148	 0.207279220657187 
2149	 0.174968408484283 
2150	 0.154971786331009 
2151	 0.128315009706293 
2152	 0.150029180375395 
2153	 0.238117503815603 
2154	 0.266155061446221 
2155	 0.289951969418708 
2156	 0.302997946860683 
2157	 0.285647704428553 
2158	 0.272761580973789 
2159	 0.270061864405252 
2160	 0.258381434051004 
2161	 0.233631957809119 
2162	 0.220305040592808 
2163	 0.203737035538208 
2164	 0.181806624546448 
2165	 0.200829820114553 
2166	 0.212310280299843 
2167	 0.213845095315355 
2168	 0.226413091494223 
2169	 0.22003827679202 
2170	 0.196513878571714 
2171	 0.186580167046313 
2172	 0.18772779767868 
2173	 0.185354716501086 
2174	 0.185596204453806 
2175	 0.204396647587345 
2176	 0.241357854713779 
2177	 0.23455298453835 
2178	 0.259078723900592 
2179	 0.234673028142476 
2180	 0.217365945000519 
2181	 0.228584587358153 
2182	 0.24505120285281 
2183	 0.26879750019617 
2184	 0.274411409964592 
2185	 0.272230366406179 
2186	 0.228503138927133 
2187	 0.200906881556195 
2188	 0.205591919720149 
2189	 0.211295768286002 
2190	 0.234416826359597 
2191	 0.242943739748837 
2192	 0.242052690505129 
2193	 0.202518576170588 
2194	 0.185990310033211 
2195	 0.186670503304872 
2196	 0.181002153900609 
2197	 0.16530979687595 
2198	 0.182010944694536 
2199	 0.1749658438371 
2200	 0.160487737951398 
2201	 0.192036874567694 
2202	 0.234101326385388 
2203	 0.282171268142609 
2204	 0.32850875710142 
2205	 0.310531102892557 
2206	 0.251960517562358 
2207	 0.259125903249191 
2208	 0.27575617722991 
2209	 0.293868654327741 
2210	 0.327111374686266 
2211	 0.308908432281279 
2212	 0.309551515406363 
2213	 0.296012768467151 
2214	 0.278793096449205 
2215	 0.271639749567234 
2216	 0.257701048785199 
2217	 0.240261051782056 
2218	 0.220848186574872 
2219	 0.215722092677886 
2220	 0.209684697291217 
2221	 0.19921405261071 
2222	 0.193423302384739 
2223	 0.215529475849246 
2224	 0.201899735331735 
2225	 0.203584486035385 
2226	 0.229664004942905 
2227	 0.244776357705648 
2228	 0.262623299247244 
2229	 0.281704421647263 
2230	 0.290058292124965 
2231	 0.27876420313746 
2232	 0.245914524026667 
2233	 0.217478016053069 
2234	 0.187878371770607 
2235	 0.187867876034193 
2236	 0.225344042912311 
2237	 0.257132979790376 
2238	 0.264433241555694 
2239	 0.27094717942687 
2240	 0.311973737172413 
2241	 0.343198113698859 
2242	 0.362487989836046 
2243	 0.421997376173773 
2244	 0.420670809153257 
2245	 0.349302092517433 
2246	 0.314918930419761 
2247	 0.268773493161394 
2248	 0.236238556777585 
2249	 0.219619215554654 
2250	 0.191548421166169 
2251	 0.155618380828131 
2252	 0.140662199604136 
2253	 0.127706794932779 
2254	 0.149218325670726 
2255	 0.204715587841665 
2256	 0.254828951468636 
2257	 0.277299817340395 
2258	 0.278050093583263 
2259	 0.292906767022845 
2260	 0.293927179562411 
2261	 0.325133083756548 
2262	 0.415647203907816 
2263	 0.456189130855253 
2264	 0.460990773190166 
2265	 0.473033823198289 
2266	 0.45332169147514 
2267	 0.396931596653889 
2268	 0.367522269202542 
2269	 0.343293547193859 
2270	 0.265010254791857 
2271	 0.228206296497427 
2272	 0.214380899407684 
2273	 0.199412831633359 
2274	 0.204696800146131 
2275	 0.21451847785353 
2276	 0.246131341321113 
2277	 0.266339419581812 
2278	 0.281222412532297 
2279	 0.279606214176505 
2280	 0.26031500730727 
2281	 0.234341326603481 
2282	 0.194203669975131 
2283	 0.179212842096163 
2284	 0.151328825341305 
2285	 0.181929210548618 
2286	 0.24562701122311 
2287	 0.256549479424988 
2288	 0.243800512765812 
2289	 0.24762882755237 
2290	 0.24134649193586 
2291	 0.250256794921246 
2292	 0.3117588256829 
2293	 0.374713933833943 
2294	 0.370372014764788 
2295	 0.330363504489548 
2296	 0.286260507969578 
2297	 0.244018666977498 
2298	 0.26846182703456 
2299	 0.307789135413301 
2300	 0.349304627686336 
2301	 0.36061651581038 
2302	 0.324832330079767 
2303	 0.280278388249728 
2304	 0.241353487530508 
2305	 0.27128067662234 
2306	 0.30324331186636 
2307	 0.313750474931323 
2308	 0.310300047577875 
2309	 0.263627183193838 
2310	 0.266623813328072 
2311	 0.299952995803969 
2312	 0.307216124824707 
2313	 0.338084894856615 
2314	 0.368830026081365 
2315	 0.362049928991744 
2316	 0.351219508802785 
2317	 0.369720922274549 
2318	 0.333269424493656 
2319	 0.255487846098577 
2320	 0.221931924695571 
2321	 0.176267778803585 
2322	 0.175154994212024 
2323	 0.206558895817044 
2324	 0.197531577677746 
2325	 0.201793188429487 
2326	 0.202821824471399 
2327	 0.16615786416796 
2328	 0.18305611821013 
2329	 0.238281618580889 
2330	 0.271002848588793 
2331	 0.333805682961559 
2332	 0.386163051876707 
2333	 0.432659916929074 
2334	 0.483241505327794 
2335	 0.559765886090631 
2336	 0.542120236297378 
2337	 0.54711900442415 
2338	 0.551516403593457 
2339	 0.540550468265183 
2340	 0.469399250657142 
2341	 0.428191597792225 
2342	 0.454438067756429 
2343	 0.473129911302763 
2344	 0.546555644756935 
2345	 0.706798642689743 
2346	 0.716870535561208 
2347	 0.592440970049501 
2348	 0.59693504573672 
2349	 0.660681744184491 
2350	 0.724086393986495 
2351	 0.781998348990991 
2352	 0.902688586339127 
2353	 0.850940002180531 
2354	 0.566196854357223 
2355	 0.42150272999142 
2356	 0.280532816084381 
2357	 0.249148581693799 
2358	 0.395353152453253 
2359	 0.494593758897918 
2360	 0.73612700930709 
2361	 0.840558614464777 
2362	 0.711345523987943 
2363	 0.641253470591404 
2364	 0.514867743525722 
2365	 0.465173580023949 
2366	 0.459387412740077 
2367	 0.461687786203153 
2368	 0.551327951974091 
2369	 0.65278117386738 
2370	 0.688047666792489 
2371	 0.751788715460756 
2372	 0.900211189996344 
2373	 0.853608452605915 
2374	 0.692394946215606 
2375	 0.60897294293879 
2376	 0.357292851395429 
2377	 0.354023526300813 
2378	 0.565035980799376 
2379	 0.559000909920872 
2380	 0.58290732587146 
2381	 0.610198911264585 
2382	 0.520567319820742 
2383	 0.425179540373577 
2384	 0.375552369696771 
2385	 0.301987428022044 
2386	 5.44629746829076E-02 
2387	 5.97752705978972E-02 
2388	 0.186704164760025 
2389	 0.408926657544148 
2390	 0.78903182884672 
2391	 1.05164444998521 
2392	 1.38758601955424 
2393	 1.50904513086185 
2394	 1.509996999814 
2395	 1.41785350018893 
2396	 1.16873302042462 
2397	 1.06209886287033 
2398	 0.90794706825635 
2399	 0.891113956987414 
2400	 1.01262633774026 
2401	 1.02963500834054 
2402	 1.03304490526216 
2403	 1.00896016690161 
2404	 0.991305685504608 
2405	 0.995154130614597 
2406	 0.999903527135611 
2407	 0.986408218152055 
2408	 0.941536135295552 
2409	 0.921444860460438 
2410	 0.921757664687627 
2411	 0.817509691493181 
2412	 0.630292073431907 
2413	 0.598152808909645 
2414	 0.582997847856178 
2415	 0.59849904809322 
2416	 0.705742752506096 
2417	 0.98537547084331 
2418	 2.5233944218951 
2419	 2.72092033383396 
2420	 2.43527392561323 
2421	 1.94492966262104 
2422	 0.613559871613341 
2423	 0.422423386475244 
2424	 0.291765865988564 
2425	 0.456811139941271 
2426	 0.822473846639353 
2427	 0.937322240184445 
2428	 1.2926355326774 
2429	 1.26943918190431 
2430	 0.84887041804811 
2431	 0.742851851491875 
2432	 0.734385716560475 
2433	 0.562045327542004 
2434	 0.362948432217452 
2435	 0.440355700188264 
2436	 0.529365043050777 
2437	 0.763488959610213 
2438	 2.11147228370145 
2439	 2.70915152374412 
2440	 2.25812472688919 
2441	 1.53068355341503 
2442	 0.714403051685654 
2443	 0.466890428063458 
2444	 6.50081040682992E-02 
2445	-9.57919298320676E-02 
2446	-0.144286205801454 
2447	-0.155369570737587 
2448	-7.28824781743986E-02 
2449	-1.32882998906506E-02 
2450	 7.47912316909267E-02 
2451	 0.25942798862708 
2452	 0.625526740223769 
2453	 0.892378599729315 
2454	 0.857929677458765 
2455	 0.910083354788562 
2456	 0.693239287193039 
2457	 0.819390260277337 
2458	 1.70678172629486 
2459	 1.49712417622719 
2460	 1.41294065363918 
2461	 0.780894763620699 
2462	 0.690958620141153 
2463	 0.75121386740369 
2464	 0.843413532947007 
2465	 2.59435503639014 
2466	 3.96256294832546 
2467	 1.4557526365545 
2468	 1.19815262741918 
2469	 0.908110731262713 
2470	 0.688782324791628 
2471	 0.636510738422637 
2472	 0.653540849683089 
2473	 0.619446449069535 
2474	 0.68105162126782 
2475	 0.849629455947307 
2476	 1.05451754151983 
2477	 1.7078373354872 
2478	 1.87206569772371 
2479	 1.64711014272332 
2480	 1.51815083791574 
2481	 1.03413827051512 
2482	 0.940202951557343 
2483	 0.96994342930767 
2484	 1.04196080811458 
2485	 3.46895050701382 
2486	 8.19395678066143 
2487	 1.58260492283898 
2488	 1.20084365029156 
2489	 0.601526418881583 
2490	 0.625161105953192 
2491	 1.216699913008 
2492	 1.14071885679315 
2493	 1.01041127596609 
2494	 0.77706993058363 
2495	 0.267281959578714 
2496	 0.272423426717438 
2497	 0.440376574927278 
2498	 0.576707454189147 
2499	 1.45903559672857 
2500	 1.57973162943784 
