Wavelength	000003.asd
350	 8.99520310057417E-02 
351	 9.23089117922205E-02 
352	 9.19203973927657E-02 
353	 9.02891967880112E-02 
354	 9.06479937269047E-02 
355	 9.12428497154708E-02 
356	 9.10803088012944E-02 
357	 9.04407249139085E-02 
358	 9.00143302363986E-02 
359	 9.06245044112952E-02 
360	 9.22978864533223E-02 
361	 9.40278607105323E-02 
362	 9.41070172351202E-02 
363	 9.33521151546761E-02 
364	 9.30078554484713E-02 
365	 9.37468801842767E-02 
366	 9.47686712761796E-02 
367	 9.54709481885687E-02 
368	 9.54146073001059E-02 
369	 9.41699139089714E-02 
370	 9.45663331706768E-02 
371	 9.61981167515222E-02 
372	 9.65742706601994E-02 
373	 9.74156585748579E-02 
374	 9.80352024978973E-02 
375	 9.80445457641504E-02 
376	 9.77761156338717E-02 
377	 9.82920840482537E-02 
378	 9.91804888687779E-02 
379	 9.99351242813403E-02 
380	 0.100723308154935 
381	 0.101310190447806 
382	 0.101676047167647 
383	 0.10208346584032 
384	 0.103609689918345 
385	 0.104900309787355 
386	 0.10551869557303 
387	 0.105792143007271 
388	 0.106239308623985 
389	 0.106533978968208 
390	 0.106911830572951 
391	 0.108312016548791 
392	 0.109005224557628 
393	 0.109533566494041 
394	 0.110475256808312 
395	 0.111405076602419 
396	 0.112310144231887 
397	 0.113079820777608 
398	 0.113596990624357 
399	 0.113590768228961 
400	 0.114529373381685 
401	 0.11585007111147 
402	 0.116045320632948 
403	 0.116592676349517 
404	 0.117372146290272 
405	 0.118090394609909 
406	 0.118470426864602 
407	 0.119287377365629 
408	 0.120050550596663 
409	 0.120357300383922 
410	 0.12079164586462 
411	 0.121549294893524 
412	 0.122315245108619 
413	 0.122740219498999 
414	 0.123520459983722 
415	 0.124604285765815 
416	 0.125657831974438 
417	 0.126213162268934 
418	 0.127097122002503 
419	 0.127682614175113 
420	 0.127887553574438 
421	 0.12907500282076 
422	 0.130058796574684 
423	 0.130768249209676 
424	 0.131441064437279 
425	 0.132113218988158 
426	 0.132593091158064 
427	 0.13325106002805 
428	 0.134654920015897 
429	 0.135603652542369 
430	 0.13629283829426 
431	 0.137131587178595 
432	 0.138549494753916 
433	 0.139543155205104 
434	 0.140399867141218 
435	 0.141484730819456 
436	 0.142439742721475 
437	 0.143731974671661 
438	 0.145055400811975 
439	 0.145853830570245 
440	 0.146526764245508 
441	 0.147318330629887 
442	 0.148291412909741 
443	 0.1493237370327 
444	 0.150373969523487 
445	 0.15130605370699 
446	 0.152052468555194 
447	 0.152723681825371 
448	 0.15343649495445 
449	 0.154113776059431 
450	 0.15464607081259 
451	 0.155262893674504 
452	 0.156059231569619 
453	 0.156821484120766 
454	 0.157067406461565 
455	 0.15753578763632 
456	 0.158181532494621 
457	 0.158786029283382 
458	 0.159130446306801 
459	 0.159297135101531 
460	 0.159602864551747 
461	 0.160295059130784 
462	 0.160607074937374 
463	 0.160910365962587 
464	 0.161343559965378 
465	 0.161726213682225 
466	 0.162088030643701 
467	 0.162494075670324 
468	 0.162941839138416 
469	 0.16321829012113 
470	 0.163619366103834 
471	 0.164023749235772 
472	 0.164229637314262 
473	 0.164668940711797 
474	 0.165166926171773 
475	 0.165652685196175 
476	 0.166204338806416 
477	 0.16666846436815 
478	 0.167220163757967 
479	 0.167902192608431 
480	 0.16820269790793 
481	 0.168782741600407 
482	 0.169685453268478 
483	 0.170605338304357 
484	 0.170995236989773 
485	 0.171458544399459 
486	 0.17228298680788 
487	 0.173218548749829 
488	 0.173951630339113 
489	 0.174667196876634 
490	 0.175578883570262 
491	 0.176668539197781 
492	 0.177500081418273 
493	 0.178086331662921 
494	 0.178734778397529 
495	 0.180023024367792 
496	 0.181098708058788 
497	 0.181773005197732 
498	 0.182880526433041 
499	 0.183838588896046 
500	 0.184702793798094 
501	 0.185680315401042 
502	 0.186917261097768 
503	 0.188288493381289 
504	 0.189475013265309 
505	 0.190194176800741 
506	 0.191420310659466 
507	 0.192616837999277 
508	 0.193575900450976 
509	 0.194869372418947 
510	 0.196025962727795 
511	 0.197099579511378 
512	 0.198264610081563 
513	 0.199515617982763 
514	 0.200808739686408 
515	 0.202057693395236 
516	 0.203157660637066 
517	 0.204378745866116 
518	 0.205796845815955 
519	 0.207214389785009 
520	 0.207984058192252 
521	 0.209102758924702 
522	 0.210399295075268 
523	 0.211467081933497 
524	 0.21284619677453 
525	 0.214189401706479 
526	 0.215409121712357 
527	 0.216703818711005 
528	 0.21790096263657 
529	 0.21904373295794 
530	 0.220217125440755 
531	 0.221475644372995 
532	 0.222850471759297 
533	 0.224196386192131 
534	 0.225327241123239 
535	 0.226456435832893 
536	 0.227739275981143 
537	 0.229112502796827 
538	 0.230219661059559 
539	 0.23145785414429 
540	 0.232761928614372 
541	 0.234000760635117 
542	 0.235296716797166 
543	 0.236436402038227 
544	 0.23753928187394 
545	 0.23890312604199 
546	 0.240202981820642 
547	 0.241388554932957 
548	 0.242488562518842 
549	 0.243601612929993 
550	 0.244894687481704 
551	 0.24623928652453 
552	 0.247442191306802 
553	 0.24853197178284 
554	 0.249869022310481 
555	 0.251282504863514 
556	 0.252126377976487 
557	 0.25328626356073 
558	 0.254599196349876 
559	 0.255790986059167 
560	 0.256923201010011 
561	 0.258148259614164 
562	 0.259380400582321 
563	 0.260442012319476 
564	 0.261388831787053 
565	 0.262415976827823 
566	 0.263516984396107 
567	 0.264379138464934 
568	 0.265480526599609 
569	 0.266541764555028 
570	 0.26725167845559 
571	 0.268175864869604 
572	 0.26902809119826 
573	 0.269743711941355 
574	 0.270457605979441 
575	 0.271372391016488 
576	 0.272205819893104 
577	 0.272819435805094 
578	 0.273596240799477 
579	 0.274351027246525 
580	 0.275006719727302 
581	 0.275585207595713 
582	 0.276457398774564 
583	 0.277098894854772 
584	 0.277487897104145 
585	 0.278237534053429 
586	 0.278865465641134 
587	 0.279253444650069 
588	 0.279510549680564 
589	 0.280208522998664 
590	 0.280910830220404 
591	 0.281403132918562 
592	 0.281777350735549 
593	 0.282374603767037 
594	 0.282943757852337 
595	 0.283357843793276 
596	 0.28382872869123 
597	 0.284329368430883 
598	 0.284846410119406 
599	 0.285324240871297 
600	 0.285544878907225 
601	 0.285865668973673 
602	 0.286360433131422 
603	 0.286814909093439 
604	 0.287023501728863 
605	 0.287232660581371 
606	 0.287586214815586 
607	 0.287714914147449 
608	 0.28799082443612 
609	 0.288379820632849 
610	 0.288680747853648 
611	 0.289102860057288 
612	 0.289469994626724 
613	 0.289744815457211 
614	 0.290127499125519 
615	 0.290328768767666 
616	 0.290463940075627 
617	 0.290705097192806 
618	 0.290986186756526 
619	 0.29128258693784 
620	 0.291544674314568 
621	 0.291715378135253 
622	 0.291979889336706 
623	 0.292134282122532 
624	 0.292156274864031 
625	 0.292593771320754 
626	 0.292856274114385 
627	 0.293071669990246 
628	 0.29352207655026 
629	 0.293515330764419 
630	 0.293630027452056 
631	 0.294056997095214 
632	 0.294450780561228 
633	 0.2946877258993 
634	 0.294972016190666 
635	 0.295393507881725 
636	 0.295418998419678 
637	 0.295467140524088 
638	 0.295653887290329 
639	 0.295895502253103 
640	 0.295939538598992 
641	 0.296198998228872 
642	 0.296666573640914 
643	 0.296509346829436 
644	 0.296686850857662 
645	 0.29680427482304 
646	 0.296336040200542 
647	 0.296269351540127 
648	 0.296832452569911 
649	 0.297617664530054 
650	 0.297788359555552 
651	 0.297849101370123 
652	 0.297962438211126 
653	 0.298165515646665 
654	 0.298355314501839 
655	 0.298677752763116 
656	 0.299033056640684 
657	 0.299167591934056 
658	 0.299143696511825 
659	 0.299055250369706 
660	 0.299085588211992 
661	 0.299510284006214 
662	 0.299613789122894 
663	 0.299625608227888 
664	 0.299785746411342 
665	 0.299625648904074 
666	 0.299527751782574 
667	 0.299536238211224 
668	 0.299500544479786 
669	 0.299433548152248 
670	 0.299536613714048 
671	 0.299873716697134 
672	 0.300260605084646 
673	 0.300501489850458 
674	 0.300603570122649 
675	 0.30066520332503 
676	 0.30079448742441 
677	 0.301023194922277 
678	 0.301356501346511 
679	 0.301774705581542 
680	 0.302266475689885 
681	 0.302557651459726 
682	 0.302725818442896 
683	 0.303739653083936 
684	 0.304347084834357 
685	 0.304697684709432 
686	 0.305477832668472 
687	 0.306568469672577 
688	 0.307875893863543 
689	 0.309148022358417 
690	 0.310387202867621 
691	 0.311700246234978 
692	 0.312559100069715 
693	 0.312938594937767 
694	 0.314576312089018 
695	 0.316059873169051 
696	 0.317223783998456 
697	 0.31848635885214 
698	 0.319182694338154 
699	 0.319957937493161 
700	 0.321045543937904 
701	 0.322039408176524 
702	 0.322543012668241 
703	 0.323064009541002 
704	 0.324021633384995 
705	 0.324976642513165 
706	 0.325970667186344 
707	 0.326697094772972 
708	 0.326866626710715 
709	 0.327478425770967 
710	 0.327972336418586 
711	 0.328171180862142 
712	 0.328638110074913 
713	 0.329342797375708 
714	 0.32991650315027 
715	 0.330021218259823 
716	 0.329703241013028 
717	 0.329825715952998 
718	 0.330417657078355 
719	 0.33050554975531 
720	 0.33148283520786 
721	 0.332243950217664 
722	 0.332533450163341 
723	 0.333046091102555 
724	 0.333015211668304 
725	 0.333051860012366 
726	 0.333859742082667 
727	 0.334424742632656 
728	 0.334692995905448 
729	 0.335066482646691 
730	 0.336030803882156 
731	 0.336032450901133 
732	 0.33649608148969 
733	 0.337638757325099 
734	 0.338076803533394 
735	 0.338559412940191 
736	 0.339180565284255 
737	 0.339742969933585 
738	 0.339638589904317 
739	 0.339936440863684 
740	 0.340674150075145 
741	 0.341239320442964 
742	 0.341278164562784 
743	 0.341515980049334 
744	 0.342192847534666 
745	 0.342711353859874 
746	 0.342970123283603 
747	 0.343191742729006 
748	 0.343587664693113 
749	 0.343967884689523 
750	 0.344202368512815 
751	 0.344485399012383 
752	 0.345106987934763 
753	 0.345432954126686 
754	 0.345535359719107 
755	 0.345688751458631 
756	 0.346316123383278 
757	 0.346566393098547 
758	 0.346512467790927 
759	 0.346328971459493 
760	 0.345549710669471 
761	 0.344972565259333 
762	 0.345515559223338 
763	 0.346663708612811 
764	 0.347558580259259 
765	 0.348212983155459 
766	 0.348710985591154 
767	 0.34916294266597 
768	 0.349605274411329 
769	 0.350003134716515 
770	 0.350318733114799 
771	 0.350568402019558 
772	 0.350561267016977 
773	 0.350601350803832 
774	 0.351005038658084 
775	 0.351074742316201 
776	 0.351241685287867 
777	 0.35153814572167 
778	 0.351648584865455 
779	 0.352100946926732 
780	 0.352368559349224 
781	 0.352275728464206 
782	 0.352547379549622 
783	 0.353092673230082 
784	 0.353364847115042 
785	 0.353067268970563 
786	 0.353465952960291 
787	 0.353741922129168 
788	 0.353779450267374 
789	 0.35393129762431 
790	 0.354162700175349 
791	 0.354356890866387 
792	 0.354469846941977 
793	 0.354569012809867 
794	 0.354938643043583 
795	 0.355104370055896 
796	 0.354830177724096 
797	 0.354879947798152 
798	 0.355107788700465 
799	 0.355327984188837 
800	 0.355364636694017 
801	 0.355227880171778 
802	 0.355471433049854 
803	 0.355963118128144 
804	 0.356074793205647 
805	 0.355839783921182 
806	 0.356079942974174 
807	 0.356756619479612 
808	 0.356562008651094 
809	 0.356393913917703 
810	 0.356577611202421 
811	 0.357012916231377 
812	 0.356613906134323 
813	 0.356316340321859 
814	 0.356266884450913 
815	 0.35621518047002 
816	 0.356238871080547 
817	 0.356355177822338 
818	 0.356440161265322 
819	 0.356385541730267 
820	 0.3570186835383 
821	 0.356684545030746 
822	 0.355485824868443 
823	 0.356123233444156 
824	 0.357092005925884 
825	 0.357882036691682 
826	 0.358277574866332 
827	 0.357938487862924 
828	 0.358168884191577 
829	 0.358454497231321 
830	 0.358016584677873 
831	 0.358038032183264 
832	 0.358374339924225 
833	 0.358464093775425 
834	 0.357842015341558 
835	 0.358052973812493 
836	 0.358260186581295 
837	 0.358147576331656 
838	 0.35809531122273 
839	 0.358564183562745 
840	 0.359000469592347 
841	 0.35910113616885 
842	 0.359243003527609 
843	 0.359451515998257 
844	 0.359388928481876 
845	 0.35898499506047 
846	 0.359174813189779 
847	 0.359325843024574 
848	 0.359333516305431 
849	 0.35924631256748 
850	 0.358747760057773 
851	 0.358735897254997 
852	 0.359128194043384 
853	 0.359227762826054 
854	 0.359558874020028 
855	 0.359520586973037 
856	 0.359150310238206 
857	 0.359136586318462 
858	 0.359026198461122 
859	 0.359213245393258 
860	 0.359616325621289 
861	 0.359310790275581 
862	 0.359663516021564 
863	 0.359787508475736 
864	 0.359176380442822 
865	 0.359555623425638 
866	 0.359604407704781 
867	 0.359487399557588 
868	 0.359682356169846 
869	 0.359935975273193 
870	 0.360451164318432 
871	 0.360769746935735 
872	 0.360453462111225 
873	 0.360745536120157 
874	 0.360277753924828 
875	 0.359669349582764 
876	 0.360522222459085 
877	 0.360782176350775 
878	 0.360672269661603 
879	 0.360420951708483 
880	 0.360150076740701 
881	 0.361009244597855 
882	 0.360973001690184 
883	 0.359996679862803 
884	 0.360899456334821 
885	 0.360464026409523 
886	 0.35943640677956 
887	 0.359077419150295 
888	 0.36009504113764 
889	 0.360883092584811 
890	 0.361313231189253 
891	 0.361379279294652 
892	 0.3602775530309 
893	 0.359789392002499 
894	 0.36018674835245 
895	 0.360732065338494 
896	 0.359003006529589 
897	 0.360211577648971 
898	 0.362165324362356 
899	 0.360658338788457 
900	 0.360505396482648 
901	 0.360047306948633 
902	 0.35932395733799 
903	 0.359169977062572 
904	 0.360501313879177 
905	 0.361054026578683 
906	 0.360452335315465 
907	 0.35960365452858 
908	 0.359805558823509 
909	 0.35953601352466 
910	 0.358967311598763 
911	 0.359706837338507 
912	 0.361940822272921 
913	 0.361141467763571 
914	 0.358953802124843 
915	 0.361040002954616 
916	 0.36091071799265 
917	 0.360144879652114 
918	 0.360155492096862 
919	 0.361266599238854 
920	 0.362857557917476 
921	 0.36258380239027 
922	 0.360859332039397 
923	 0.360496078344974 
924	 0.358393185844646 
925	 0.35973064427781 
926	 0.363961629501382 
927	 0.360590324329208 
928	 0.356789063211791 
929	 0.355498520285439 
930	 0.355819775156124 
931	 0.349411361433589 
932	 0.344283676911401 
933	 0.348800826980545 
934	 0.357763747773501 
935	 0.344931881960642 
936	 0.340185748759332 
937	 0.339963341309992 
938	 0.338051831201766 
939	 0.334222726023235 
940	 0.345886338698996 
941	 0.347020985065944 
942	 0.334515961680733 
943	 0.335714944765242 
944	 0.339240610763107 
945	 0.337237223788943 
946	 0.333188314463474 
947	 0.342382052986317 
948	 0.356878003093129 
949	 0.351371462011454 
950	 0.334081877592843 
951	 0.34383796253631 
952	 0.339142070916777 
953	 0.335051370284566 
954	 0.34287938845947 
955	 0.360016777481023 
956	 0.364601598368146 
957	 0.36243505133701 
958	 0.359123904281321 
959	 0.356334248439867 
960	 0.353718120324399 
961	 0.354257562302137 
962	 0.355251262481594 
963	 0.352071111396052 
964	 0.350897373281856 
965	 0.358159289136465 
966	 0.36621095342666 
967	 0.363761278770599 
968	 0.362306429290737 
969	 0.365365268297879 
970	 0.367127726549774 
971	 0.361098993575079 
972	 0.360778307840667 
973	 0.360838932373721 
974	 0.362250857219729 
975	 0.36723575693798 
976	 0.366390293857932 
977	 0.36566060292885 
978	 0.363762174854725 
979	 0.359856925455705 
980	 0.364467339864861 
981	 0.369700233114939 
982	 0.371537482543242 
983	 0.369185378516366 
984	 0.365416673876056 
985	 0.367782493174415 
986	 0.371495539941213 
987	 0.371406072606665 
988	 0.368534303593758 
989	 0.367375556614194 
990	 0.365442957712846 
991	 0.364187084158258 
992	 0.371154250468601 
993	 0.370825783848179 
994	 0.368666636771326 
995	 0.369203333368611 
996	 0.371338663686143 
997	 0.372494724385687 
998	 0.373169807965362 
999	 0.37224755019881 
1000	 0.368042740010704 
1001	 0.379478818937623 
1002	 0.379779549426156 
1003	 0.379915198082234 
1004	 0.380224274801031 
1005	 0.381590433465056 
1006	 0.383056389587554 
1007	 0.384927055460318 
1008	 0.385179068687369 
1009	 0.38550779155573 
1010	 0.38417286622486 
1011	 0.381943713348591 
1012	 0.382367432315714 
1013	 0.385209866931795 
1014	 0.387336904285515 
1015	 0.387579734772275 
1016	 0.387822333681294 
1017	 0.387853440646007 
1018	 0.386610831829696 
1019	 0.385443246519901 
1020	 0.384148523971868 
1021	 0.383519764889725 
1022	 0.381492959522908 
1023	 0.381374084282417 
1024	 0.383467191773359 
1025	 0.385194638828286 
1026	 0.385241824646767 
1027	 0.386704429255171 
1028	 0.385001188399455 
1029	 0.382861536785934 
1030	 0.384284470345008 
1031	 0.384410967599186 
1032	 0.38266378962624 
1033	 0.379742311421547 
1034	 0.379331454858018 
1035	 0.377767498085608 
1036	 0.376999541272494 
1037	 0.378594641980725 
1038	 0.380568000035793 
1039	 0.379215865584418 
1040	 0.377517016547619 
1041	 0.378429625264206 
1042	 0.379804805384501 
1043	 0.381019401881478 
1044	 0.38143128251347 
1045	 0.382128689880345 
1046	 0.382477028092912 
1047	 0.382071041235599 
1048	 0.382179006544882 
1049	 0.382200245074119 
1050	 0.381465613245275 
1051	 0.381495670019933 
1052	 0.38206565114819 
1053	 0.382977528705223 
1054	 0.383254154448927 
1055	 0.381908925023004 
1056	 0.379177147407877 
1057	 0.377745870391277 
1058	 0.38089113794107 
1059	 0.382937130504085 
1060	 0.384883193229287 
1061	 0.388251394674596 
1062	 0.386479706866323 
1063	 0.384997175027658 
1064	 0.384829923065651 
1065	 0.386036086167177 
1066	 0.385466224318368 
1067	 0.385999400296813 
1068	 0.385827998377383 
1069	 0.384442914166625 
1070	 0.384637304813513 
1071	 0.384970481402578 
1072	 0.385142798430538 
1073	 0.387286010494949 
1074	 0.387777104873966 
1075	 0.387832752908182 
1076	 0.389787589053779 
1077	 0.389590004219768 
1078	 0.389313684849898 
1079	 0.389141768976213 
1080	 0.388910255014482 
1081	 0.386968269825727 
1082	 0.386495367032793 
1083	 0.387398863324019 
1084	 0.387927711953499 
1085	 0.388601658169057 
1086	 0.390245714290316 
1087	 0.3908123237605 
1088	 0.390484626968222 
1089	 0.390222654135668 
1090	 0.390072115610376 
1091	 0.391259143701785 
1092	 0.39198525861806 
1093	 0.393029076961 
1094	 0.394187270463056 
1095	 0.394965267671814 
1096	 0.394454606725936 
1097	 0.395384841503783 
1098	 0.39648356046581 
1099	 0.395880550965838 
1100	 0.395087974394417 
1101	 0.394844337169085 
1102	 0.392035389298 
1103	 0.387697875572257 
1104	 0.385338192964011 
1105	 0.381960916038871 
1106	 0.382444487782913 
1107	 0.391188301419313 
1108	 0.399942724031402 
1109	 0.407220566645066 
1110	 0.411996080249755 
1111	 0.410187099380739 
1112	 0.4122318384786 
1113	 0.414072558289879 
1114	 0.416801848200117 
1115	 0.419316843743496 
1116	 0.434026763860632 
1117	 0.437376187479603 
1118	 0.439614568834933 
1119	 0.451826726619608 
1120	 0.437580658418208 
1121	 0.433858957868447 
1122	 0.417729988779421 
1123	 0.373930353298054 
1124	 0.366946169538761 
1125	 0.373591820300453 
1126	 0.376820199397235 
1127	 0.390396529348888 
1128	 0.443076349362667 
1129	 0.455288483466483 
1130	 0.449427877007572 
1131	 0.441956805675125 
1132	 0.424935508398828 
1133	 0.430655899625683 
1134	 0.439646034876438 
1135	 0.443810406366962 
1136	 0.44868412484612 
1137	 0.432355200822044 
1138	 0.432469692632761 
1139	 0.443771134146474 
1140	 0.439386116001089 
1141	 0.430674918281876 
1142	 0.432827522718843 
1143	 0.431080204084609 
1144	 0.424771041769035 
1145	 0.429726241903081 
1146	 0.433559794872798 
1147	 0.427541796961958 
1148	 0.419476399096464 
1149	 0.410126481955048 
1150	 0.427035487508932 
1151	 0.440774532275934 
1152	 0.429916037346224 
1153	 0.432937807284941 
1154	 0.426089450122609 
1155	 0.414123958687636 
1156	 0.406950756715677 
1157	 0.397832297376056 
1158	 0.392434699041397 
1159	 0.392834558608294 
1160	 0.394740360425654 
1161	 0.396565633240304 
1162	 0.403810985725394 
1163	 0.406217757881008 
1164	 0.406762945531816 
1165	 0.405297597946633 
1166	 0.404615704451547 
1167	 0.402849226334369 
1168	 0.401906839080481 
1169	 0.40343012647214 
1170	 0.404946944238244 
1171	 0.406767790980522 
1172	 0.408346033816081 
1173	 0.408132836710083 
1174	 0.409050937068838 
1175	 0.411451649909146 
1176	 0.411205463220148 
1177	 0.409526860828754 
1178	 0.408189096321335 
1179	 0.403612467061517 
1180	 0.402321490687001 
1181	 0.404040705973944 
1182	 0.405224416983468 
1183	 0.407697619953427 
1184	 0.409267584944751 
1185	 0.411526975689515 
1186	 0.409671555394815 
1187	 0.408274180821298 
1188	 0.40889863875787 
1189	 0.410423764736553 
1190	 0.411471279074664 
1191	 0.411048070061086 
1192	 0.410733766693372 
1193	 0.410117174477398 
1194	 0.4074672718898 
1195	 0.407212861944177 
1196	 0.408882112356475 
1197	 0.40917585112542 
1198	 0.409174348059178 
1199	 0.409290343929711 
1200	 0.408565267014026 
1201	 0.408414381805356 
1202	 0.408516425869381 
1203	 0.4097534910267 
1204	 0.410940913189388 
1205	 0.412458895288677 
1206	 0.413269279334233 
1207	 0.415048031160484 
1208	 0.415489796912691 
1209	 0.41476446449388 
1210	 0.413778763424717 
1211	 0.411701739748419 
1212	 0.41037859512765 
1213	 0.408442367931077 
1214	 0.407524407129716 
1215	 0.407565577801418 
1216	 0.407871155270111 
1217	 0.408698478991041 
1218	 0.409655593990378 
1219	 0.411795570976046 
1220	 0.412075332780912 
1221	 0.411734491400807 
1222	 0.409976481164013 
1223	 0.410261235661988 
1224	 0.410865955789108 
1225	 0.410242270895871 
1226	 0.412109244550139 
1227	 0.413117871131109 
1228	 0.413322572814367 
1229	 0.41380556304565 
1230	 0.415389120884985 
1231	 0.415602527972786 
1232	 0.414749084700674 
1233	 0.41430113732238 
1234	 0.413441453257677 
1235	 0.413581654569147 
1236	 0.414353373841373 
1237	 0.414294361395955 
1238	 0.414476399832313 
1239	 0.414631649191876 
1240	 0.414054549943328 
1241	 0.413574948550913 
1242	 0.412996643973168 
1243	 0.413340081643982 
1244	 0.413342235314753 
1245	 0.414573691373193 
1246	 0.415662620404269 
1247	 0.415666268064306 
1248	 0.415350538858386 
1249	 0.413315788311047 
1250	 0.413282084623624 
1251	 0.413735908866629 
1252	 0.414823052332409 
1253	 0.418079269632447 
1254	 0.419089527922896 
1255	 0.419136743482112 
1256	 0.419279875578926 
1257	 0.417892439093236 
1258	 0.417510229112288 
1259	 0.418181807895779 
1260	 0.418593935720919 
1261	 0.419042963508602 
1262	 0.419376357924521 
1263	 0.419883850250079 
1264	 0.419643734450695 
1265	 0.419076159531526 
1266	 0.420215696441538 
1267	 0.420699966221405 
1268	 0.4196420306809 
1269	 0.420222440380238 
1270	 0.421262668701065 
1271	 0.421794889824458 
1272	 0.423724774378959 
1273	 0.423664483747241 
1274	 0.42196844834177 
1275	 0.421138036159564 
1276	 0.419499191906896 
1277	 0.418907565165808 
1278	 0.419312572157855 
1279	 0.418935785338454 
1280	 0.417849222730043 
1281	 0.417942049554043 
1282	 0.418691873034051 
1283	 0.418887982260813 
1284	 0.419720313198429 
1285	 0.420878011308611 
1286	 0.419457472685325 
1287	 0.418803681500049 
1288	 0.41800250659751 
1289	 0.416409344458978 
1290	 0.417007030786093 
1291	 0.419259084670862 
1292	 0.419819686513853 
1293	 0.421319917603464 
1294	 0.421993817164765 
1295	 0.420911253789169 
1296	 0.420752512482714 
1297	 0.421637330440747 
1298	 0.421329906825469 
1299	 0.419545500819046 
1300	 0.419158199279211 
1301	 0.41862190598572 
1302	 0.419207613812691 
1303	 0.42168274754351 
1304	 0.423335520829593 
1305	 0.42650313803624 
1306	 0.427267830001659 
1307	 0.4261035679617 
1308	 0.424713698896101 
1309	 0.422532374501827 
1310	 0.422245132347191 
1311	 0.422428397051421 
1312	 0.422366501630871 
1313	 0.421792491013201 
1314	 0.420008460796639 
1315	 0.419471712550828 
1316	 0.418862183579515 
1317	 0.419831360119797 
1318	 0.42232791890118 
1319	 0.423567280144369 
1320	 0.426232643024135 
1321	 0.427524497082487 
1322	 0.427685301088524 
1323	 0.427948530479994 
1324	 0.426690735475677 
1325	 0.426527246625862 
1326	 0.426363819324713 
1327	 0.426520587618534 
1328	 0.428079763166217 
1329	 0.429681319797423 
1330	 0.433502415614156 
1331	 0.434624780667718 
1332	 0.430313237735751 
1333	 0.431527680267562 
1334	 0.43880792750631 
1335	 0.438858290919307 
1336	 0.441207112949107 
1337	 0.453027619561689 
1338	 0.447934786608157 
1339	 0.426936264604136 
1340	 0.419005554674196 
1341	 0.402753823515788 
1342	 0.40043617596532 
1343	 0.419398861624974 
1344	 0.426675725469722 
1345	 0.442672234346446 
1346	 0.455630027712086 
1347	 0.443358029070934 
1348	 0.465344128621133 
1349	 0.536218885259847 
1350	 0.729468271666551 
1351	 1.6729338600963 
1352	-159.045120066134 
1353	-3.56941762018715 
1354	-1.51080452124637 
1355	-0.974876314695796 
1356	-0.619121183198807 
1357	-0.275247758292019 
1358	-0.137228626958658 
1359	-0.381773524871568 
1360	-0.101417130684713 
1361	-0.36763071863125 
1362	-0.692666358816967 
1363	-0.863847676382211 
1364	-0.831701957957088 
1365	-1.15220608353589 
1366	-5.66819824320914 
1367	 7.03616354697054 
1368	 1.45632791946139 
1369	 1.88306173000326 
1370	-1.69363068805747 
1371	-0.583157427150685 
1372	-0.205074044556079 
1373	-0.30865108754822 
1374	-1.07182121604122 
1375	-1.44594227873565 
1376	-2.98663991598811 
1377	-3.63112246906167 
1378	-1.45512955362593 
1379	-1.26804366585973 
1380	-1.30794632743978 
1381	-1.39407142830213 
1382	-2.48131603600822 
1383	-4.11598674076176 
1384	-5.68260486519471 
1385	-7.52812575369818 
1386	-5.4538717842568 
1387	-2.96071185801709 
1388	-2.4374479516581 
1389	-5.17918493206114 
1390	-5.42322902752629 
1391	-6.80159538327185 
1392	-9.32982353714248 
1393	-12.9449559502094 
1394	-5.5123779991846 
1395	-3.5461981824853 
1396	-0.842371000466208 
1397	-0.269197300819844 
1398	-0.188345262834356 
1399	-0.257434981377505 
1400	-0.244635635468909 
1401	-0.236155291962821 
1402	-0.189319728659991 
1403	-7.41809470555371E-02 
1404	-0.01907161816009 
1405	 7.75084105130549E-02 
1406	 3.70197080089061E-02 
1407	-7.98816779997577E-02 
1408	-0.227263458807811 
1409	-0.876396152661311 
1410	-1.11362042919204 
1411	-0.924375137909307 
1412	-1.13027653911799 
1413	-0.903345822807206 
1414	-0.903591424799008 
1415	-1.95281428842864 
1416	-2.25519837549488 
1417	-1.47864446420102 
1418	-1.30276059408108 
1419	-0.936050193964108 
1420	-1.0762975989052 
1421	-1.299859673845 
1422	-1.87611804477659 
1423	-2.73406233879247 
1424	-8.26443290367847 
1425	-38.5504739213605 
1426	 32.4240932543217 
1427	 11.3988340418373 
1428	 6.87777217761846 
1429	 4.20013133850565 
1430	 3.01117388281954 
1431	 2.63303763445707 
1432	 2.45772569547475 
1433	 2.33938636089789 
1434	 2.47473539452178 
1435	 2.86194284130272 
1436	 4.56005335074318 
1437	 3.85022480100304 
1438	 2.39134259779262 
1439	 2.19446269830693 
1440	 1.54664675452922 
1441	 1.35078292762837 
1442	 2.11397361892856 
1443	 2.5387187563293 
1444	 2.48573920349521 
1445	 2.08446824042071 
1446	 1.9349739824576 
1447	 1.48466338460233 
1448	 0.983943544247581 
1449	 0.768140949993946 
1450	 0.535030800501583 
1451	 0.510198829375312 
1452	 0.57976234237146 
1453	 0.618068917791895 
1454	 0.7115682714869 
1455	 0.805316797117242 
1456	 0.801448160162289 
1457	 0.797343944801639 
1458	 0.750477715318011 
1459	 0.662878933891807 
1460	 0.619582002723006 
1461	 0.573740816100258 
1462	 0.523859092334503 
1463	 0.458507962165539 
1464	 0.460856614328592 
1465	 0.487396745126169 
1466	 0.506388545384856 
1467	 0.63642213141159 
1468	 0.646204671225027 
1469	 0.543732245131258 
1470	 0.481518476379461 
1471	 0.379721595579038 
1472	 0.33190216080969 
1473	 0.289073036475657 
1474	 0.31323176179047 
1475	 0.391995918300019 
1476	 0.420502394771451 
1477	 0.475275663112576 
1478	 0.503150103279598 
1479	 0.515792153851992 
1480	 0.506807831604881 
1481	 0.463804314736279 
1482	 0.461359035392549 
1483	 0.465491586555492 
1484	 0.456325439902935 
1485	 0.468422740657034 
1486	 0.470378951582884 
1487	 0.455048905658542 
1488	 0.446596288257902 
1489	 0.440239880665584 
1490	 0.440961151187731 
1491	 0.441079508862864 
1492	 0.442526891955194 
1493	 0.44971679326296 
1494	 0.455431200410819 
1495	 0.465467791253215 
1496	 0.464240040229915 
1497	 0.458633505065721 
1498	 0.454034816670638 
1499	 0.440406122676454 
1500	 0.432574218565171 
1501	 0.432450517287773 
1502	 0.437174991978298 
1503	 0.44580099277985 
1504	 0.451724299583064 
1505	 0.453437084378257 
1506	 0.45345342764775 
1507	 0.452114136652572 
1508	 0.446257793006063 
1509	 0.446066524177685 
1510	 0.447925935262173 
1511	 0.44767090568047 
1512	 0.448414388607621 
1513	 0.448318915945455 
1514	 0.447141732497492 
1515	 0.445019068460762 
1516	 0.442602489403404 
1517	 0.441846813314555 
1518	 0.439772497041304 
1519	 0.439777100349068 
1520	 0.442412845870144 
1521	 0.442786343962073 
1522	 0.442255584762227 
1523	 0.442934206158956 
1524	 0.443640514222564 
1525	 0.444986367998043 
1526	 0.447389938646713 
1527	 0.449061641754291 
1528	 0.452100223286668 
1529	 0.451703205534043 
1530	 0.447725792335018 
1531	 0.44739448852186 
1532	 0.446686824220653 
1533	 0.447082335741855 
1534	 0.451678517078383 
1535	 0.452792952533585 
1536	 0.451974796393848 
1537	 0.450699161042892 
1538	 0.446498250774175 
1539	 0.445938416266138 
1540	 0.447103135535999 
1541	 0.447759972103805 
1542	 0.451716215702523 
1543	 0.452303098187541 
1544	 0.44969745352492 
1545	 0.448518339970727 
1546	 0.446060524186666 
1547	 0.445381825781904 
1548	 0.445516409245336 
1549	 0.4465454075259 
1550	 0.450615859876714 
1551	 0.451707761801567 
1552	 0.452294787680065 
1553	 0.452212100590374 
1554	 0.449165400718918 
1555	 0.447361873891238 
1556	 0.444575107493663 
1557	 0.444406393863394 
1558	 0.447718426187667 
1559	 0.448392663639402 
1560	 0.44952176869399 
1561	 0.450299891401541 
1562	 0.449378065934983 
1563	 0.447232436482288 
1564	 0.446885911715321 
1565	 0.44766940065802 
1566	 0.445627185081493 
1567	 0.443586129184505 
1568	 0.441759820518117 
1569	 0.441113021128157 
1570	 0.445529323340213 
1571	 0.447536517986512 
1572	 0.447348709231788 
1573	 0.449810183608279 
1574	 0.449947621216352 
1575	 0.449458357396564 
1576	 0.45378616554411 
1577	 0.454484039635413 
1578	 0.452809272518519 
1579	 0.455477018327324 
1580	 0.456119556317159 
1581	 0.453894917147224 
1582	 0.452653514893472 
1583	 0.451080022200923 
1584	 0.450040029545972 
1585	 0.452841552020549 
1586	 0.452722049621733 
1587	 0.452340465458129 
1588	 0.453123918384703 
1589	 0.453058041585583 
1590	 0.453557442053182 
1591	 0.456712197490001 
1592	 0.456369450037238 
1593	 0.452831806533626 
1594	 0.453037676234529 
1595	 0.453256075569602 
1596	 0.455872215269325 
1597	 0.463330162516483 
1598	 0.463906597404791 
1599	 0.463117729986438 
1600	 0.460313214509641 
1601	 0.451070068444371 
1602	 0.448663748162596 
1603	 0.448355205708813 
1604	 0.448721662624368 
1605	 0.452295524637768 
1606	 0.453108778275686 
1607	 0.453302880731093 
1608	 0.454185483235303 
1609	 0.455516440439336 
1610	 0.455682175503653 
1611	 0.454574966670694 
1612	 0.454946394783627 
1613	 0.455758914114726 
1614	 0.454927481663334 
1615	 0.455168749677397 
1616	 0.454184263260454 
1617	 0.449827602980725 
1618	 0.448513902704053 
1619	 0.449048424761232 
1620	 0.448606358171571 
1621	 0.448321886982328 
1622	 0.448752570172167 
1623	 0.448443224342243 
1624	 0.450500890269156 
1625	 0.455263557840357 
1626	 0.456617825490275 
1627	 0.458234602642126 
1628	 0.459162588258278 
1629	 0.458103465532924 
1630	 0.456935152615435 
1631	 0.455738795652361 
1632	 0.45383059878317 
1633	 0.449752364935961 
1634	 0.448374843499883 
1635	 0.448290736989715 
1636	 0.448356297603513 
1637	 0.449440360028089 
1638	 0.449117287224484 
1639	 0.448092844916178 
1640	 0.449007041820576 
1641	 0.450776282434368 
1642	 0.451987162768595 
1643	 0.454464737241585 
1644	 0.456599813055915 
1645	 0.456911163291499 
1646	 0.45952167146013 
1647	 0.464949353416916 
1648	 0.466197718950602 
1649	 0.465591318866635 
1650	 0.466877174589515 
1651	 0.468311347182998 
1652	 0.467373744338586 
1653	 0.465762239825297 
1654	 0.464356457153976 
1655	 0.461132056896496 
1656	 0.458658481701423 
1657	 0.458108063823972 
1658	 0.457665743596949 
1659	 0.45397780460077 
1660	 0.453654863699677 
1661	 0.45703611208118 
1662	 0.458575156558715 
1663	 0.460222708249567 
1664	 0.459010548687616 
1665	 0.455004568359209 
1666	 0.451265132746261 
1667	 0.452173159564854 
1668	 0.453726395707495 
1669	 0.45545614736208 
1670	 0.455757316570515 
1671	 0.451809022728994 
1672	 0.448904311752307 
1673	 0.450871370739653 
1674	 0.456744901421193 
1675	 0.461114810760948 
1676	 0.463714386233246 
1677	 0.462665948887202 
1678	 0.461045584970288 
1679	 0.463682025098837 
1680	 0.466599054529682 
1681	 0.469603010543287 
1682	 0.46461743213479 
1683	 0.456207281260893 
1684	 0.454863904746492 
1685	 0.454793566565112 
1686	 0.456257032279388 
1687	 0.456701118172694 
1688	 0.456556649675425 
1689	 0.456576804429162 
1690	 0.462350959176543 
1691	 0.47412562372124 
1692	 0.475590214413792 
1693	 0.473517409875217 
1694	 0.470229442484789 
1695	 0.465133351424665 
1696	 0.463998457380245 
1697	 0.462961792230162 
1698	 0.463931854723968 
1699	 0.459907154540815 
1700	 0.45556501645347 
1701	 0.457076546760512 
1702	 0.452761177272766 
1703	 0.453354822348834 
1704	 0.456720988572321 
1705	 0.454971133131505 
1706	 0.461437125343942 
1707	 0.467713655944243 
1708	 0.470800643966357 
1709	 0.479820206992164 
1710	 0.483352190121335 
1711	 0.479011214433474 
1712	 0.478610022329462 
1713	 0.475328337330856 
1714	 0.470840770218513 
1715	 0.470190458773076 
1716	 0.469577647852659 
1717	 0.472306210398839 
1718	 0.473709432149458 
1719	 0.4748320977861 
1720	 0.46911475978226 
1721	 0.464999346772884 
1722	 0.459568787864211 
1723	 0.456829645137307 
1724	 0.456504047489373 
1725	 0.458423872670795 
1726	 0.460684977213854 
1727	 0.463249837025383 
1728	 0.473188710954581 
1729	 0.476738966427714 
1730	 0.476754034617746 
1731	 0.476910071039791 
1732	 0.470844453303654 
1733	 0.468245438842988 
1734	 0.467367516965512 
1735	 0.464570252773133 
1736	 0.461485047855388 
1737	 0.461712594882078 
1738	 0.462897132389453 
1739	 0.468995311558045 
1740	 0.474655730929018 
1741	 0.473120216008665 
1742	 0.471997078097052 
1743	 0.478892582395944 
1744	 0.480545872315914 
1745	 0.478288027952944 
1746	 0.478582358105684 
1747	 0.47267237452771 
1748	 0.466782096050769 
1749	 0.467790216836247 
1750	 0.467455298146836 
1751	 0.456344783258633 
1752	 0.457932943443663 
1753	 0.465644294275095 
1754	 0.463898439610629 
1755	 0.474105503962864 
1756	 0.472253689420031 
1757	 0.465671815405135 
1758	 0.472627442741068 
1759	 0.47325229872517 
1760	 0.474510478096484 
1761	 0.474371978242777 
1762	 0.472114267780045 
1763	 0.476171855155483 
1764	 0.481275109839158 
1765	 0.489919719179518 
1766	 0.495919288968647 
1767	 0.498748135014916 
1768	 0.513697643109704 
1769	 0.516167021062724 
1770	 0.5054309038363 
1771	 0.504521953321533 
1772	 0.496914095317251 
1773	 0.491659895511637 
1774	 0.50192875535365 
1775	 0.50671560813243 
1776	 0.504504067332207 
1777	 0.508553351100323 
1778	 0.518098299336286 
1779	 0.54340766102026 
1780	 0.56586191323655 
1781	 0.600295544948078 
1782	 0.627218877187471 
1783	 0.581555145186125 
1784	 0.563243221370179 
1785	 0.572728389518984 
1786	 0.562991414244579 
1787	 0.590487168380102 
1788	 0.629102656051097 
1789	 0.646393777899296 
1790	 0.677232554218994 
1791	 0.677388219507496 
1792	 0.658396219811616 
1793	 0.617295050989243 
1794	 0.519336261697141 
1795	 0.534817860433022 
1796	 0.516628176079159 
1797	 0.322953001814558 
1798	 0.330185218369761 
1799	 0.304846082999283 
1800	 0.403042959145686 
1801	 0.817093622285564 
1802	 0.859890160882626 
1803	 0.837583078810366 
1804	 0.818897611182028 
1805	 0.710727901506768 
1806	 0.656953117636146 
1807	 0.622295408769539 
1808	 0.645422711570221 
1809	 0.649990389952343 
1810	 0.614586486391756 
1811	 0.658039690316522 
1812	 0.850819051637038 
1813	 0.876487423017463 
1814	 0.869927283655572 
1815	 0.858089219884576 
1816	 0.787094464221004 
1817	 0.660088759928321 
1818	 0.605857704438604 
1819	 0.496002073331657 
1820	 0.499246629761563 
1821	 0.567548959516095 
1822	 0.681624499972497 
1823	 1.05014583156271 
1824	 1.35042052494607 
1825	 1.73173033151498 
1826	 1.94869432214728 
1827	 1.87192229755295 
1828	 1.6312069124964 
1829	 1.24202340275042 
1830	 0.386608455617964 
1831	 0.316669849013719 
1832	 0.603926986972647 
1833	 0.695004045758985 
1834	 1.21485418698565 
1835	 1.40508069800574 
1836	 1.37032241143324 
1837	 0.954777862510432 
1838	 0.828236956880199 
1839	 0.608164052281467 
1840	 0.544811303544031 
1841	 0.567366994978838 
1842	 0.544113086122014 
1843	 0.549417705251908 
1844	 0.604554042141121 
1845	 0.65389615290725 
1846	 0.75362577196588 
1847	 0.806305098680728 
1848	 1.04761420610798 
1849	 1.00406945578523 
1850	 0.707079736251567 
1851	 0.594884111635427 
1852	 0.35378464889624 
1853	 0.283770408031337 
1854	 0.379939553306804 
1855	 0.417395108087359 
1856	 0.476949439779366 
1857	 0.608835541501102 
1858	 0.646651019757219 
1859	 0.695447163076389 
1860	 0.652242015594963 
1861	 0.507915241213065 
1862	 0.455151969935827 
1863	 0.354588294628595 
1864	 0.325810297485209 
1865	 0.380609397636413 
1866	 0.424043562973321 
1867	 0.482675219776664 
1868	 0.550122343792837 
1869	 0.66636399932958 
1870	 0.837867020497721 
1871	 0.887567800040524 
1872	 0.983625186022163 
1873	 0.940838781846814 
1874	 0.653870353543847 
1875	 0.576358459510533 
1876	 0.581521584002041 
1877	 0.545062972603596 
1878	 0.483411785125092 
1879	 0.455842044351258 
1880	 0.453507270659595 
1881	 0.322918013709995 
1882	 0.379357081905787 
1883	 0.709018388058853 
1884	 0.831314523603397 
1885	 0.917337223677441 
1886	 0.913364945920796 
1887	 0.884507115729038 
1888	 0.618302334855323 
1889	 0.576874164814447 
1890	 0.503809344243551 
1891	 0.546859617305468 
1892	 0.852043651881348 
1893	 0.924202619568027 
1894	 0.875517049235783 
1895	 0.908742458409194 
1896	 0.95324237702804 
1897	 0.860877278639179 
1898	 0.723244192409777 
1899	 0.68390991750694 
1900	 0.67193646769262 
1901	 0.585849316683234 
1902	 0.596556332450125 
1903	 0.78588840063867 
1904	 0.793346103367901 
1905	 0.651621850830909 
1906	 0.623951792850231 
1907	 0.541733245474191 
1908	 0.535638804650845 
1909	 0.574564673622747 
1910	 0.795535686175499 
1911	 0.818702362004084 
1912	 0.669465912842055 
1913	 0.705177071858759 
1914	 0.758721879713338 
1915	 0.823536474822244 
1916	 1.1574625309227 
1917	 1.20743587255922 
1918	 0.98371178238573 
1919	 0.966826707447714 
1920	 0.788486230087656 
1921	 0.776610150820068 
1922	 0.705574751824809 
1923	 0.634184517640962 
1924	 0.616616221721226 
1925	 0.53118083070558 
1926	 0.575153954096858 
1927	 1.0572324951573 
1928	 1.0689740454894 
1929	 0.843880411803595 
1930	 0.587951768319499 
1931	 0.246940615177535 
1932	 5.45946281101306E-02 
1933	 4.99213364741421E-02 
1934	 0.209371270426659 
1935	 0.330866310276887 
1936	 0.544311488009161 
1937	 0.624226328208092 
1938	 0.639740685872802 
1939	 0.685161824138694 
1940	 0.733020926240355 
1941	 0.693871649901544 
1942	 0.665361892934589 
1943	 0.81779494363596 
1944	 0.75583996398215 
1945	 0.869149148826201 
1946	 0.939875697016088 
1947	 1.07626259170826 
1948	 1.08501088095044 
1949	 0.967395151675296 
1950	 0.953609203852125 
1951	 1.00964003816281 
1952	 1.02000510145194 
1953	 1.06542825319301 
1954	 1.06198372076783 
1955	 0.999748712797026 
1956	 0.871853064461789 
1957	 0.694283574920557 
1958	 0.606848191126988 
1959	 0.618739955766618 
1960	 0.671672874368384 
1961	 0.758402023875231 
1962	 1.33714783958597 
1963	 1.44248092513217 
1964	 1.18293527582953 
1965	 0.988447955802003 
1966	 0.69244105283218 
1967	 0.489710460498531 
1968	 0.502394350101364 
1969	 0.511945481096571 
1970	 0.501676788336838 
1971	 0.521655369341037 
1972	 0.519564415690017 
1973	 0.464510601710102 
1974	 0.501479025315951 
1975	 0.603049185965879 
1976	 0.668032470382156 
1977	 0.800143799755225 
1978	 0.823412972687922 
1979	 0.720521279240146 
1980	 0.708837218927536 
1981	 0.740948778067423 
1982	 0.688601552908745 
1983	 0.65645967226011 
1984	 0.683809267989986 
1985	 0.668350518339598 
1986	 0.574706726558691 
1987	 0.551517937164771 
1988	 0.581383943596244 
1989	 0.56194244626353 
1990	 0.55787616424226 
1991	 0.569875033047988 
1992	 0.548579418674693 
1993	 0.525167553781502 
1994	 0.48286517071025 
1995	 0.480258745794421 
1996	 0.46316278895833 
1997	 0.44012724116539 
1998	 0.435593532115472 
1999	 0.410962016884506 
2000	 0.406286720018894 
2001	 0.42585625900238 
2002	 0.529620404962788 
2003	 0.520240431614214 
2004	 0.545333328155382 
2005	 0.507593094975221 
2006	 0.466248293930429 
2007	 0.544359296802196 
2008	 0.698631003691999 
2009	 0.770093148299361 
2010	 0.897275737134804 
2011	 0.88130171982864 
2012	 0.708445510447291 
2013	 0.654120859609914 
2014	 0.604072597621908 
2015	 0.566003888760658 
2016	 0.644785822296262 
2017	 0.674457443059597 
2018	 0.543553850115787 
2019	 0.437293654826807 
2020	 0.28072055820945 
2021	 0.171151212190372 
2022	 0.222284679012523 
2023	 0.370315986587265 
2024	 0.466383967996802 
2025	 0.636749454717949 
2026	 0.683888211104588 
2027	 0.680971083976196 
2028	 0.61559720538658 
2029	 0.585427104892593 
2030	 0.618235512035762 
2031	 0.620020240896772 
2032	 0.650663251635899 
2033	 0.648823188182847 
2034	 0.619419477011837 
2035	 0.64333989796946 
2036	 0.667297005597889 
2037	 0.658626837940029 
2038	 0.618473318874057 
2039	 0.606098937574137 
2040	 0.567153173671781 
2041	 0.563070738530595 
2042	 0.596033294791931 
2043	 0.644466322245347 
2044	 0.645385599817363 
2045	 0.649986359193241 
2046	 0.679624012985655 
2047	 0.638700370787302 
2048	 0.602539575685811 
2049	 0.606102786378967 
2050	 0.530069002712978 
2051	 0.482841919467328 
2052	 0.472007751116043 
2053	 0.500076416296367 
2054	 0.510806003011111 
2055	 0.557235598975142 
2056	 0.576657721730493 
2057	 0.562390757415098 
2058	 0.456238700016064 
2059	 0.34723763781715 
2060	 0.313315219762907 
2061	 0.302840324653069 
2062	 0.369864197320622 
2063	 0.487697465517927 
2064	 0.549450751507762 
2065	 0.613721456494923 
2066	 0.62012057412508 
2067	 0.633537572274551 
2068	 0.622988903946128 
2069	 0.635167207677325 
2070	 0.654475022752773 
2071	 0.66594236565996 
2072	 0.667144987578506 
2073	 0.678476211511212 
2074	 0.649295588042845 
2075	 0.618839893033783 
2076	 0.603166784483898 
2077	 0.585147939137572 
2078	 0.577307913385696 
2079	 0.570056263061477 
2080	 0.584751557769399 
2081	 0.563373342702899 
2082	 0.550241198272915 
2083	 0.543087334284855 
2084	 0.557749153246734 
2085	 0.578119053217133 
2086	 0.586770423654626 
2087	 0.608890639752117 
2088	 0.58756455053457 
2089	 0.54672843714312 
2090	 0.529933597482397 
2091	 0.537823385007981 
2092	 0.541022510152148 
2093	 0.542704049238378 
2094	 0.526255043125547 
2095	 0.506326754228602 
2096	 0.484820621607042 
2097	 0.449116140028619 
2098	 0.456731800089952 
2099	 0.469658162717617 
2100	 0.491492785397832 
2101	 0.521403051315932 
2102	 0.583491769848322 
2103	 0.614152430119684 
2104	 0.615729599634482 
2105	 0.600127261310794 
2106	 0.573499981431559 
2107	 0.544245716898595 
2108	 0.522913459490744 
2109	 0.520822833171666 
2110	 0.525072288751411 
2111	 0.529663146822548 
2112	 0.523804316784099 
2113	 0.544986304823381 
2114	 0.558578642621308 
2115	 0.562270495979433 
2116	 0.564795547285355 
2117	 0.567450468211182 
2118	 0.56146236927802 
2119	 0.544071555027397 
2120	 0.547519077630603 
2121	 0.546333456585313 
2122	 0.602268590883414 
2123	 0.655647715729168 
2124	 0.694044672304936 
2125	 0.708975739129451 
2126	 0.679229288015384 
2127	 0.646716699185073 
2128	 0.631903618710858 
2129	 0.63035456138639 
2130	 0.630137775244036 
2131	 0.62174692035383 
2132	 0.585445141487092 
2133	 0.55496235295821 
2134	 0.510963837717386 
2135	 0.497822443954756 
2136	 0.494080161719597 
2137	 0.494524874500952 
2138	 0.507287895352138 
2139	 0.523198335418488 
2140	 0.546006738586077 
2141	 0.567891659801882 
2142	 0.59307377102824 
2143	 0.574314150546574 
2144	 0.533928870903396 
2145	 0.506886250196941 
2146	 0.474593457712164 
2147	 0.477698508602279 
2148	 0.463332311116965 
2149	 0.449685883844674 
2150	 0.455233508327118 
2151	 0.47007737121251 
2152	 0.481026593704809 
2153	 0.519617326494608 
2154	 0.529470280163602 
2155	 0.52728697706966 
2156	 0.515951871264503 
2157	 0.485970712479355 
2158	 0.476644678857435 
2159	 0.440118806366065 
2160	 0.422857455969236 
2161	 0.407341236862094 
2162	 0.387055753425667 
2163	 0.403159535765709 
2164	 0.416295083177032 
2165	 0.434828067119824 
2166	 0.467992391240249 
2167	 0.470437105556898 
2168	 0.444090172774049 
2169	 0.438730361411734 
2170	 0.415917519959915 
2171	 0.401399826503218 
2172	 0.392580659648489 
2173	 0.39964332084785 
2174	 0.407474119040655 
2175	 0.42787616457839 
2176	 0.466235331552704 
2177	 0.519474037334012 
2178	 0.543550877846435 
2179	 0.545827063970962 
2180	 0.536320914366555 
2181	 0.486596158957196 
2182	 0.443759023309133 
2183	 0.457797306979435 
2184	 0.479872327408648 
2185	 0.492464815112408 
2186	 0.541248667765978 
2187	 0.550649276194861 
2188	 0.553857858724763 
2189	 0.598323949749041 
2190	 0.591000618464685 
2191	 0.589362736856155 
2192	 0.578043483693648 
2193	 0.528629555528911 
2194	 0.507076814392741 
2195	 0.494012497050362 
2196	 0.491700072496966 
2197	 0.503766796564458 
2198	 0.527216778280047 
2199	 0.556487773410051 
2200	 0.586890506903752 
2201	 0.615291577997241 
2202	 0.622925402002208 
2203	 0.593218308290077 
2204	 0.539760320868681 
2205	 0.47058863284144 
2206	 0.446834897342459 
2207	 0.436076426847001 
2208	 0.411996084854871 
2209	 0.449571064685588 
2210	 0.505335541622596 
2211	 0.564205432468741 
2212	 0.619942542109939 
2213	 0.58087687069518 
2214	 0.51947149431998 
2215	 0.496783153801981 
2216	 0.464011383707858 
2217	 0.458117857041341 
2218	 0.492461846037986 
2219	 0.502819847505032 
2220	 0.497666436140987 
2221	 0.504580629678256 
2222	 0.519945363122645 
2223	 0.545608931969513 
2224	 0.523586401162141 
2225	 0.523105192926745 
2226	 0.526665177771102 
2227	 0.508298403754714 
2228	 0.538656103684345 
2229	 0.515232266238243 
2230	 0.450713941490469 
2231	 0.429371546365755 
2232	 0.42513499284524 
2233	 0.461543887815238 
2234	 0.511268407726482 
2235	 0.53755444862291 
2236	 0.524803650561807 
2237	 0.468449691410147 
2238	 0.419795087925993 
2239	 0.398371589952238 
2240	 0.405860224275585 
2241	 0.442650311506107 
2242	 0.471460234408997 
2243	 0.529751369741656 
2244	 0.572768971552271 
2245	 0.631253852985163 
2246	 0.626566528899988 
2247	 0.580457354546685 
2248	 0.553628621082579 
2249	 0.464505135855699 
2250	 0.452049188980052 
2251	 0.483473476605426 
2252	 0.53593529471234 
2253	 0.561050137320026 
2254	 0.591803952789264 
2255	 0.586152519090679 
2256	 0.575930427053035 
2257	 0.627726449598918 
2258	 0.637467524415018 
2259	 0.661778608475141 
2260	 0.679137984517238 
2261	 0.648527636527728 
2262	 0.665647553346988 
2263	 0.640826763129951 
2264	 0.621997380520768 
2265	 0.621968777256289 
2266	 0.589126554266166 
2267	 0.58560142693825 
2268	 0.576405906598639 
2269	 0.53979942838702 
2270	 0.552428737993089 
2271	 0.563438700366041 
2272	 0.590122907209948 
2273	 0.581945172051547 
2274	 0.55477962524689 
2275	 0.541302829479391 
2276	 0.511916715606159 
2277	 0.511886575118892 
2278	 0.571287578813313 
2279	 0.585592753663236 
2280	 0.557037994438846 
2281	 0.530411559672003 
2282	 0.486225566983992 
2283	 0.472660611437811 
2284	 0.4624845572164 
2285	 0.491751060522016 
2286	 0.535800065997572 
2287	 0.491405060226867 
2288	 0.428642919402127 
2289	 0.377327066104007 
2290	 0.404189443442177 
2291	 0.468368265160469 
2292	 0.511875798810252 
2293	 0.629844289344128 
2294	 0.672754675519329 
2295	 0.687227692012761 
2296	 0.781476034902253 
2297	 0.797284394048001 
2298	 0.824520829424478 
2299	 0.801139303680803 
2300	 0.700120476605618 
2301	 0.661437985379792 
2302	 0.599947972061225 
2303	 0.544797883765037 
2304	 0.513633062949071 
2305	 0.446027254117513 
2306	 0.42096307490396 
2307	 0.442868845056632 
2308	 0.44949704210827 
2309	 0.502385176345566 
2310	 0.500600189738175 
2311	 0.447597260641515 
2312	 0.426290646885914 
2313	 0.385336809192266 
2314	 0.376416776842718 
2315	 0.419696948534316 
2316	 0.438552285333975 
2317	 0.433317290578502 
2318	 0.479756355022833 
2319	 0.580009161590318 
2320	 0.605276343086304 
2321	 0.656800084151459 
2322	 0.655556355211008 
2323	 0.510819862766338 
2324	 0.460780588957986 
2325	 0.458466402884988 
2326	 0.447147225233631 
2327	 0.4713611383109 
2328	 0.485825719245228 
2329	 0.468264681206113 
2330	 0.477918538621288 
2331	 0.536972792519227 
2332	 0.567336339688605 
2333	 0.620037669115388 
2334	 0.627979482145269 
2335	 0.595937887240739 
2336	 0.531608427287089 
2337	 0.525813707178298 
2338	 0.567414972463113 
2339	 0.609877229474414 
2340	 0.643085086744652 
2341	 0.664255451664652 
2342	 0.675102783718886 
2343	 0.670811655376214 
2344	 0.649319069241843 
2345	 0.590129657511409 
2346	 0.51033596987726 
2347	 0.449581646961762 
2348	 0.48357992005147 
2349	 0.561173169998111 
2350	 0.50964036611818 
2351	 0.49666587954722 
2352	 0.518672969705002 
2353	 0.463536445800848 
2354	 0.458939949910333 
2355	 0.465907622121124 
2356	 0.47382484921829 
2357	 0.643116327635778 
2358	 0.763824398755908 
2359	 0.901060544959627 
2360	 0.962610943802838 
2361	 0.782459462961863 
2362	 0.739084056168972 
2363	 0.798854371379649 
2364	 0.883060779446036 
2365	 0.985087960204831 
2366	 1.04647888555446 
2367	 0.893241300741737 
2368	 0.757408345497892 
2369	 0.756930962068527 
2370	 0.718261508791729 
2371	 0.688690399783968 
2372	 0.714630002214932 
2373	 0.660648044236281 
2374	 0.534381300297306 
2375	 0.4880441456127 
2376	 0.436144942403651 
2377	 0.433292376993317 
2378	 0.487905070633139 
2379	 0.505098683201087 
2380	 0.54048799101083 
2381	 0.580818038163736 
2382	 0.650875802839387 
2383	 0.650459644535587 
2384	 0.60246165623381 
2385	 0.643366375856602 
2386	 0.512541110841276 
2387	 0.70642640852546 
2388	 1.46783968458562 
2389	 1.60304154961041 
2390	 1.82474200167215 
2391	 1.61422603217744 
2392	 0.854803887778793 
2393	 0.695558890494745 
2394	 0.570140390854137 
2395	 0.606732214860447 
2396	 0.857869219278931 
2397	 1.01501818421448 
2398	 1.35018930072742 
2399	 1.42671114293627 
2400	 1.35806604792197 
2401	 1.28674729147729 
2402	 1.07889433893627 
2403	 0.928944750692173 
2404	 0.72586420560149 
2405	 0.577537767680069 
2406	 0.386192066626485 
2407	 0.358222373553014 
2408	 0.448054281980271 
2409	 0.523629258231343 
2410	 0.694043931732365 
2411	 0.770098559631317 
2412	 0.834493054255149 
2413	 0.86833575038469 
2414	 0.873863044591522 
2415	 0.900186118055202 
2416	 0.92152256178202 
2417	 0.893822701722928 
2418	 0.816427377546985 
2419	 0.778493878014136 
2420	 0.715007363897004 
2421	 0.631987428490515 
2422	 0.612337178958217 
2423	 0.587301974399635 
2424	 0.485998322266344 
2425	 0.518247485645402 
2426	 0.629355414263938 
2427	 0.704140679514315 
2428	 0.904771769631406 
2429	 0.929228875512096 
2430	 0.821509352236897 
2431	 0.843122740910325 
2432	 0.775317538486493 
2433	 0.855029979201961 
2434	 1.2598499746361 
2435	 1.27670368552147 
2436	 1.1781651348339 
2437	 0.949638300956055 
2438	 0.535421193438635 
2439	 0.358734298911444 
2440	 5.52666700099606E-02 
2441	 4.77100069819166E-02 
2442	 0.26480453998602 
2443	 0.496753000519903 
2444	 1.19261593997782 
2445	 1.74032267090956 
2446	 5.30432372236699 
2447	 2.53773850180007 
2448	 0.593579428795437 
2449	 0.236632445008324 
2450	-1.66957397662624E-02 
2451	-2.37841094547073E-02 
2452	 0.329718635476603 
2453	 0.6838012140561 
2454	 1.39652611981039 
2455	 1.85694305038377 
2456	 1.69346066975443 
2457	 2.2162865671986 
2458	 2.15305809082471 
2459	 2.13554261457158 
2460	 2.351459770715 
2461	 3.52455796994064 
2462	 3.59958888032051 
2463	 2.84040662589415 
2464	 2.12784268010517 
2465	 1.11280753844544 
2466	 0.754603967963966 
2467	 0.603167001502432 
2468	 0.578247054506825 
2469	 0.545511974837852 
2470	 0.561936927504402 
2471	 0.791455985349765 
2472	 0.940292320510312 
2473	 1.02143668568651 
2474	 1.20215673760087 
2475	 1.30755786639112 
2476	 1.31506380752723 
2477	 1.25169758606473 
2478	 1.28586883736939 
2479	 1.27599405880491 
2480	 1.27775368703579 
2481	 1.45495194759871 
2482	 1.58019667483513 
2483	 1.42630632078489 
2484	 1.57309475310006 
2485	 1.90027963472695 
2486	 2.22001371450831 
2487	 4.7327933752324 
2488	 11.6112685188413 
2489	-29.5259935507895 
2490	 22.7337039415017 
2491	 2.91765254185679 
2492	 1.54085087489667 
2493	 0.589852856441732 
2494	 0.517192948668277 
2495	 0.596738715603977 
2496	 0.7003234315071 
2497	 1.03869237286732 
2498	 1.23201923435543 
2499	 1.98728638511993 
2500	 1.87094742538035 
