Wavelength	000023.asd
350	 0.121227720389936 
351	 0.122703516991098 
352	 0.123590854715604 
353	 0.123241485894843 
354	 0.123637859383746 
355	 0.124188385008673 
356	 0.124507495511979 
357	 0.124634674881247 
358	 0.124260792680667 
359	 0.123847017669208 
360	 0.123861642204918 
361	 0.124604666070627 
362	 0.125363068458646 
363	 0.126347266452191 
364	 0.12740581182548 
365	 0.126755062558635 
366	 0.127469210634478 
367	 0.128298231924961 
368	 0.127351569458383 
369	 0.127672719571742 
370	 0.128922766871656 
371	 0.129953961489559 
372	 0.129512245652567 
373	 0.129728073019655 
374	 0.129788415680441 
375	 0.129754028943662 
376	 0.131119738605997 
377	 0.13225362829313 
378	 0.132595863559212 
379	 0.132359463625837 
380	 0.133050518457217 
381	 0.133583611715129 
382	 0.133638401446448 
383	 0.133504082451647 
384	 0.134788836743391 
385	 0.135991414506545 
386	 0.136757072780758 
387	 0.137503683092148 
388	 0.137689510714155 
389	 0.137241923626958 
390	 0.137163964414622 
391	 0.139449108416239 
392	 0.139942557772661 
393	 0.139260959614896 
394	 0.139085314238922 
395	 0.141175143965082 
396	 0.142299773000755 
397	 0.142509663476379 
398	 0.14285970853053 
399	 0.143829356510872 
400	 0.144291108270677 
401	 0.14445108232692 
402	 0.145211843125579 
403	 0.145935498856333 
404	 0.146909360555073 
405	 0.147889537763678 
406	 0.147872462897032 
407	 0.148177269973545 
408	 0.148625004593789 
409	 0.148908271379252 
410	 0.149314978523108 
411	 0.149977948776018 
412	 0.15054020575796 
413	 0.15066440943576 
414	 0.151217789550195 
415	 0.152104857186795 
416	 0.152748893474881 
417	 0.152388751916046 
418	 0.152897426613742 
419	 0.154009296450234 
420	 0.155046954677005 
421	 0.155226279096841 
422	 0.155922815974159 
423	 0.156938405424475 
424	 0.157701197621246 
425	 0.158274241585006 
426	 0.158450068236231 
427	 0.158723831216372 
428	 0.159857124682512 
429	 0.160550631130013 
430	 0.161223149679884 
431	 0.162083729459128 
432	 0.162789265896745 
433	 0.163509969202327 
434	 0.164060630514241 
435	 0.16446160370167 
436	 0.165534924655935 
437	 0.166391289927587 
438	 0.166970417025849 
439	 0.167588267037564 
440	 0.168144431788748 
441	 0.168818499587945 
442	 0.169570462853544 
443	 0.170110478955238 
444	 0.170593336746315 
445	 0.171292126968443 
446	 0.172188892530141 
447	 0.172483027862311 
448	 0.172792262302465 
449	 0.173293788723745 
450	 0.173953982001356 
451	 0.174659275689838 
452	 0.17550218567464 
453	 0.176254950757159 
454	 0.176393085513348 
455	 0.17694276863001 
456	 0.177740489802429 
457	 0.178426658415544 
458	 0.178796390962848 
459	 0.179032850004057 
460	 0.179255719457558 
461	 0.179539850598954 
462	 0.179817309881305 
463	 0.180302915906237 
464	 0.180929610114038 
465	 0.181335188161344 
466	 0.181600222946624 
467	 0.181889829691822 
468	 0.182346264878695 
469	 0.183058877356117 
470	 0.183324951042701 
471	 0.183384061454922 
472	 0.183779200485412 
473	 0.184181821975454 
474	 0.184312710156623 
475	 0.184339251187001 
476	 0.184863675286831 
477	 0.185498944803244 
478	 0.186070642878498 
479	 0.186465261921097 
480	 0.186534087085191 
481	 0.187149596954034 
482	 0.18809795479117 
483	 0.188705129777276 
484	 0.189014275376536 
485	 0.189325234121507 
486	 0.189791041700337 
487	 0.190338977797608 
488	 0.191100545196291 
489	 0.191676738643778 
490	 0.191888938249188 
491	 0.19243132888956 
492	 0.193110648133343 
493	 0.193656788197751 
494	 0.193870603060282 
495	 0.194492086105375 
496	 0.195093392477618 
497	 0.195507513195996 
498	 0.196045131824869 
499	 0.19655068647748 
500	 0.197184306638934 
501	 0.19798513002284 
502	 0.198329372797868 
503	 0.198520998854293 
504	 0.198857463140489 
505	 0.199547569762221 
506	 0.200145304800513 
507	 0.200753782218225 
508	 0.201479986797007 
509	 0.202339722929168 
510	 0.203156569951561 
511	 0.203785759143018 
512	 0.204210590052676 
513	 0.204766915071647 
514	 0.205697393808889 
515	 0.206614915478023 
516	 0.206726685366501 
517	 0.207017292471303 
518	 0.207745756320774 
519	 0.208779992747502 
520	 0.209539692405879 
521	 0.210243259235338 
522	 0.210673575484727 
523	 0.210704489315001 
524	 0.211286936323915 
525	 0.212274264123228 
526	 0.213239194214784 
527	 0.213577964169849 
528	 0.214068428909134 
529	 0.214771038518688 
530	 0.215545768782849 
531	 0.216149250061461 
532	 0.21663399219346 
533	 0.217186864019136 
534	 0.217998716717529 
535	 0.21876071023634 
536	 0.219357852918526 
537	 0.219883149441817 
538	 0.220664525545795 
539	 0.220991653334788 
540	 0.221381591232385 
541	 0.222317220718837 
542	 0.222928166977485 
543	 0.223231608051561 
544	 0.223671360508774 
545	 0.22482510067387 
546	 0.225581622202602 
547	 0.226121507820731 
548	 0.226657696041436 
549	 0.22709062634534 
550	 0.227789510076831 
551	 0.228799023906802 
552	 0.229896628801384 
553	 0.230217988164334 
554	 0.230587259324535 
555	 0.231371543450988 
556	 0.232390947516708 
557	 0.233062999759439 
558	 0.233574017701986 
559	 0.234136846535629 
560	 0.234514310080028 
561	 0.235319582843244 
562	 0.236241984625937 
563	 0.236644413616164 
564	 0.237108799395419 
565	 0.237571979781799 
566	 0.238030297741343 
567	 0.23865768576732 
568	 0.239211571046636 
569	 0.239683999519618 
570	 0.240138808012511 
571	 0.240625006047607 
572	 0.241296899454328 
573	 0.242042665638077 
574	 0.242570178306853 
575	 0.24298716307408 
576	 0.243505723649906 
577	 0.244189655368052 
578	 0.244744222425888 
579	 0.245351045072512 
580	 0.246038696965018 
581	 0.246757582819924 
582	 0.247377915952101 
583	 0.247781780111404 
584	 0.248035810283749 
585	 0.248403431529159 
586	 0.248489435509302 
587	 0.248378257876202 
588	 0.248182366358833 
589	 0.247589111705466 
590	 0.247579855801159 
591	 0.248081554894088 
592	 0.248368688802604 
593	 0.248967110684867 
594	 0.249525750645009 
595	 0.249822249903445 
596	 0.249981969312687 
597	 0.250691688033007 
598	 0.251638155039059 
599	 0.252276466305515 
600	 0.252633464631607 
601	 0.253062902166214 
602	 0.253672773953894 
603	 0.254316711290491 
604	 0.254814567839306 
605	 0.255201492885771 
606	 0.255528121722822 
607	 0.255747219916224 
608	 0.256036047459479 
609	 0.256359652847737 
610	 0.256577256710356 
611	 0.25666147989172 
612	 0.256781280020308 
613	 0.257064267073445 
614	 0.257556368893351 
615	 0.257793048869708 
616	 0.257879216545654 
617	 0.258038707483849 
618	 0.258261932797503 
619	 0.258440659454341 
620	 0.258616673992409 
621	 0.258911869859923 
622	 0.258990241709767 
623	 0.259057944830987 
624	 0.25924309411372 
625	 0.25927163798043 
626	 0.259690150828529 
627	 0.260020052134422 
628	 0.259629671762345 
629	 0.259781597230573 
630	 0.259914597732015 
631	 0.259963653963087 
632	 0.260526443666618 
633	 0.260982528352055 
634	 0.261214371474243 
635	 0.261358025120144 
636	 0.261944897495145 
637	 0.262404608863698 
638	 0.262645344338152 
639	 0.262853227753009 
640	 0.262951087719587 
641	 0.262967089514258 
642	 0.263072987959458 
643	 0.263683433611044 
644	 0.263820437005008 
645	 0.263397880963334 
646	 0.262690202032127 
647	 0.262138309669474 
648	 0.262168180641691 
649	 0.262869291869604 
650	 0.263916621363772 
651	 0.263989388916822 
652	 0.264016643035089 
653	 0.264671369265786 
654	 0.265294850493821 
655	 0.26526039626154 
656	 0.265202361265415 
657	 0.266056662215058 
658	 0.266000615795184 
659	 0.266297522325728 
660	 0.267168691966633 
661	 0.26757038151086 
662	 0.267984834302882 
663	 0.268494633388293 
664	 0.268995061636306 
665	 0.269029244136621 
666	 0.269288077393384 
667	 0.269580709578849 
668	 0.269326375100348 
669	 0.269511606390857 
670	 0.2699237841977 
671	 0.27034416721138 
672	 0.270791156200155 
673	 0.270780210828632 
674	 0.27078877517084 
675	 0.271284964624646 
676	 0.271407095056843 
677	 0.271317953745992 
678	 0.271273124541417 
679	 0.271563364646258 
680	 0.27222914709007 
681	 0.272593002369783 
682	 0.272492076854609 
683	 0.273126228508288 
684	 0.273507048642132 
685	 0.273276577893466 
686	 0.272381300174529 
687	 0.271521928814264 
688	 0.271272017344722 
689	 0.271753026745559 
690	 0.272535598561012 
691	 0.273052907344131 
692	 0.272780944586144 
693	 0.271813403695776 
694	 0.271982753458194 
695	 0.272884631221369 
696	 0.274211710853248 
697	 0.27564428568483 
698	 0.276084353685613 
699	 0.275588786661909 
700	 0.274961687570589 
701	 0.275903425809411 
702	 0.276966190099861 
703	 0.277939481122697 
704	 0.278829938934344 
705	 0.279256526765188 
706	 0.279545602496296 
707	 0.279978314454951 
708	 0.280769623693527 
709	 0.281825130696702 
710	 0.282506970660638 
711	 0.282864735820598 
712	 0.28395323662174 
713	 0.284461116214993 
714	 0.284464326585392 
715	 0.284128523170424 
716	 0.28219238221035 
717	 0.280142845770539 
718	 0.279114625790681 
719	 0.279527659971753 
720	 0.281737633179225 
721	 0.283774629385762 
722	 0.284736844115945 
723	 0.284229707546039 
724	 0.283931865517942 
725	 0.284191822096249 
726	 0.284802981308327 
727	 0.285675505637541 
728	 0.286479205562093 
729	 0.286928140748282 
730	 0.287007186783577 
731	 0.288454751423266 
732	 0.291319339681484 
733	 0.294438028279681 
734	 0.295967334110027 
735	 0.29644281525392 
736	 0.296948601731642 
737	 0.298238415401971 
738	 0.299144214428649 
739	 0.300491382395944 
740	 0.30208900850303 
741	 0.303198280342759 
742	 0.303950920967441 
743	 0.304938900195644 
744	 0.306209648283925 
745	 0.306969270456071 
746	 0.307760016848385 
747	 0.308471261175755 
748	 0.308957973020358 
749	 0.309541980261329 
750	 0.3099194283838 
751	 0.310201074807754 
752	 0.310716287709123 
753	 0.311351065000969 
754	 0.3118798840968 
755	 0.312167795470249 
756	 0.312218900998191 
757	 0.31260777695825 
758	 0.312652519012367 
759	 0.311177261140839 
760	 0.307014005019644 
761	 0.30263820785622 
762	 0.301756605039032 
763	 0.302293893093272 
764	 0.303873140252646 
765	 0.306554088456585 
766	 0.30961118047385 
767	 0.312391163641277 
768	 0.313965878046984 
769	 0.315074378610969 
770	 0.316205246348491 
771	 0.317052637989203 
772	 0.31751761732278 
773	 0.317841784737683 
774	 0.318288690757069 
775	 0.318392774010953 
776	 0.318506900630571 
777	 0.318764002481634 
778	 0.319085411297582 
779	 0.319808834793297 
780	 0.320152278397422 
781	 0.319932367599942 
782	 0.320329933421904 
783	 0.320447254191655 
784	 0.320244323043925 
785	 0.319914094985428 
786	 0.319462269900848 
787	 0.319337925104441 
788	 0.319133646563726 
789	 0.318150403760138 
790	 0.318211940836363 
791	 0.318656627675477 
792	 0.319128821110378 
793	 0.31997902953195 
794	 0.320694396113038 
795	 0.320457810791237 
796	 0.319294608202197 
797	 0.319500035326711 
798	 0.319709265167256 
799	 0.319686961244297 
800	 0.319589715433597 
801	 0.319445446244216 
802	 0.319408490138243 
803	 0.319681914694199 
804	 0.320404377239397 
805	 0.321095372909477 
806	 0.32168498264654 
807	 0.322038585778545 
808	 0.321834488700795 
809	 0.321216085375884 
810	 0.320167539154646 
811	 0.31879569578085 
812	 0.317706816711723 
813	 0.316399737466172 
814	 0.315032929908674 
815	 0.314100048406629 
816	 0.313367515442099 
817	 0.313670902485826 
818	 0.314611281244137 
819	 0.315113689034477 
820	 0.316303359195042 
821	 0.317222289893908 
822	 0.317243086381231 
823	 0.316453048432773 
824	 0.316932064517405 
825	 0.317710100329779 
826	 0.317857431542127 
827	 0.317846032719611 
828	 0.318276000495629 
829	 0.31890298983931 
830	 0.319270839013464 
831	 0.319668199368837 
832	 0.319978772937427 
833	 0.320831946508367 
834	 0.322794743615852 
835	 0.323402693632955 
836	 0.32413720197072 
837	 0.32524270130824 
838	 0.325561490813617 
839	 0.325607489104812 
840	 0.325703511759649 
841	 0.326102109276623 
842	 0.326974215444482 
843	 0.327881640126197 
844	 0.328370095519113 
845	 0.328425640433014 
846	 0.329213886690856 
847	 0.32964417442302 
848	 0.329521825846724 
849	 0.329157701743495 
850	 0.32928373743042 
851	 0.330105021617136 
852	 0.330827527638184 
853	 0.330323661957601 
854	 0.330053389891502 
855	 0.330061415617311 
856	 0.330341526104561 
857	 0.33092381939507 
858	 0.33144902754439 
859	 0.331858106288282 
860	 0.332134593226324 
861	 0.33225483628987 
862	 0.332483354241252 
863	 0.332650664544619 
864	 0.332606752962032 
865	 0.332478367760353 
866	 0.332839614956078 
867	 0.333058713414956 
868	 0.332668707563609 
869	 0.333301780774186 
870	 0.333302717853114 
871	 0.332858822467592 
872	 0.332898167341301 
873	 0.333509044038087 
874	 0.333629994409632 
875	 0.333404330599103 
876	 0.333641071653799 
877	 0.333184149698866 
878	 0.333233829457758 
879	 0.33371767905818 
880	 0.333353382906757 
881	 0.33360933973126 
882	 0.333804586240572 
883	 0.333683677240461 
884	 0.333860360574207 
885	 0.3331080578575 
886	 0.332190990623695 
887	 0.332057750752451 
888	 0.333204406223663 
889	 0.333432713965056 
890	 0.332616140331181 
891	 0.331374840181849 
892	 0.330677934203887 
893	 0.330117761690108 
894	 0.329061153450934 
895	 0.326841979696114 
896	 0.323060640953113 
897	 0.322079482294481 
898	 0.322429776531112 
899	 0.321022017636821 
900	 0.322078659125059 
901	 0.322788773398727 
902	 0.32237339502909 
903	 0.321398502134319 
904	 0.321327966937922 
905	 0.321092275888024 
906	 0.320956263803047 
907	 0.321630129686399 
908	 0.321503309935702 
909	 0.319620592848832 
910	 0.317596078152138 
911	 0.318350685426473 
912	 0.319610807122853 
913	 0.319697615836483 
914	 0.318143658204676 
915	 0.316056751382769 
916	 0.317893607927369 
917	 0.318017369242235 
918	 0.31724667079625 
919	 0.320932109132285 
920	 0.320508999889024 
921	 0.320102734989688 
922	 0.320670663335305 
923	 0.319250815942904 
924	 0.31878824989942 
925	 0.318858287511947 
926	 0.319693446168938 
927	 0.322711513831458 
928	 0.321460688217071 
929	 0.316078639523809 
930	 0.309076032969354 
931	 0.305468219344266 
932	 0.29670752674334 
933	 0.294512926055316 
934	 0.299216922031329 
935	 0.280945845275117 
936	 0.288532213464845 
937	 0.295108558023918 
938	 0.291732178298533 
939	 0.300687501220526 
940	 0.297193648498298 
941	 0.291877457831933 
942	 0.291744581888713 
943	 0.294205758568504 
944	 0.297411274708641 
945	 0.296879973874076 
946	 0.287994720370745 
947	 0.269960374841441 
948	 0.270530512291634 
949	 0.286400716459284 
950	 0.2988510790771 
951	 0.286521007288789 
952	 0.298507176554004 
953	 0.296965180636051 
954	 0.280804402908419 
955	 0.29006537814021 
956	 0.30100602669919 
957	 0.307246338259264 
958	 0.306287157778309 
959	 0.299140087292801 
960	 0.299972761682158 
961	 0.306024233850052 
962	 0.313677860137985 
963	 0.320066939639048 
964	 0.31809418339437 
965	 0.314844082516315 
966	 0.314065419734491 
967	 0.316261262391748 
968	 0.3217173690383 
969	 0.325808868044933 
970	 0.324361360764325 
971	 0.317408269245829 
972	 0.321978783704389 
973	 0.322480250895087 
974	 0.322026540517168 
975	 0.329386569006728 
976	 0.327647251965034 
977	 0.324871063153164 
978	 0.322873519188646 
979	 0.32156596121876 
980	 0.325297853351935 
981	 0.329274145281488 
982	 0.330784688251223 
983	 0.32997863326205 
984	 0.331487720852375 
985	 0.331548827826049 
986	 0.331114625920339 
987	 0.332348069540547 
988	 0.337046974600866 
989	 0.34229819668457 
990	 0.340858545137463 
991	 0.334687661352109 
992	 0.338037224052531 
993	 0.340503466657655 
994	 0.341841335577788 
995	 0.342680151856691 
996	 0.342757470536751 
997	 0.340255607508508 
998	 0.340850672957795 
999	 0.341665861115722 
1000	 0.336131532643766 
1001	 0.340370459249676 
1002	 0.341458701094981 
1003	 0.344034555960208 
1004	 0.3465528767573 
1005	 0.350020883909887 
1006	 0.353015476443528 
1007	 0.359610360651885 
1008	 0.360711741863569 
1009	 0.359457222819988 
1010	 0.355702530829833 
1011	 0.351983905752684 
1012	 0.347680345337647 
1013	 0.347323943086035 
1014	 0.350564849757448 
1015	 0.350073971803255 
1016	 0.349872538124412 
1017	 0.350838730044662 
1018	 0.351917297087393 
1019	 0.351180417330401 
1020	 0.350322932237574 
1021	 0.350535877146474 
1022	 0.350091486575153 
1023	 0.349745147021558 
1024	 0.349391850916061 
1025	 0.35281071409451 
1026	 0.354648847385464 
1027	 0.351848494734496 
1028	 0.354519511941721 
1029	 0.355758932282549 
1030	 0.354022943090609 
1031	 0.354790355136105 
1032	 0.354151650888398 
1033	 0.352020456468678 
1034	 0.350979177815006 
1035	 0.349956735437003 
1036	 0.349916550993245 
1037	 0.351397716728792 
1038	 0.350520777898048 
1039	 0.350054861738764 
1040	 0.350022990443938 
1041	 0.351022163345727 
1042	 0.351059118001871 
1043	 0.352873920177805 
1044	 0.355561487282071 
1045	 0.355549003274356 
1046	 0.358336266663508 
1047	 0.359922781408521 
1048	 0.358575698166078 
1049	 0.358065738225334 
1050	 0.356843993409605 
1051	 0.3565805379823 
1052	 0.356783236111974 
1053	 0.356717382025973 
1054	 0.357732721645594 
1055	 0.354872246173765 
1056	 0.3518638649627 
1057	 0.352575482335041 
1058	 0.351347921956235 
1059	 0.3530801363445 
1060	 0.355362701479471 
1061	 0.354992075645959 
1062	 0.355875557050562 
1063	 0.353370917548453 
1064	 0.352432315950093 
1065	 0.351610368096217 
1066	 0.350573635571974 
1067	 0.349011082994268 
1068	 0.351597752459323 
1069	 0.350587083274603 
1070	 0.348831710132422 
1071	 0.350439720004142 
1072	 0.350254928550534 
1073	 0.351053868600394 
1074	 0.351809027708347 
1075	 0.351723058575043 
1076	 0.353434103679789 
1077	 0.351598510222275 
1078	 0.352030075241529 
1079	 0.352062094541983 
1080	 0.3519042523445 
1081	 0.348197659925897 
1082	 0.348063767063039 
1083	 0.346372001013099 
1084	 0.344937193664867 
1085	 0.346274206978089 
1086	 0.347800293306765 
1087	 0.347987464609942 
1088	 0.348839227697761 
1089	 0.349417818484236 
1090	 0.348244442088772 
1091	 0.349731420594046 
1092	 0.349746837451904 
1093	 0.347106796724636 
1094	 0.346470135129546 
1095	 0.346755570623625 
1096	 0.347705292591186 
1097	 0.349293596073781 
1098	 0.351337003118728 
1099	 0.351161607374265 
1100	 0.34777678468286 
1101	 0.34161390437586 
1102	 0.33772410767444 
1103	 0.338777504646186 
1104	 0.340600908961164 
1105	 0.34163103923095 
1106	 0.34129759560165 
1107	 0.339187713593029 
1108	 0.335180093118148 
1109	 0.334657301552518 
1110	 0.333833079643111 
1111	 0.332558709543178 
1112	 0.331086609372158 
1113	 0.329915043126395 
1114	 0.32995331593387 
1115	 0.328199310573469 
1116	 0.343941392158787 
1117	 0.349121292401166 
1118	 0.342898422035928 
1119	 0.353279684598602 
1120	 0.343521677133922 
1121	 0.329059802434048 
1122	 0.309665673924285 
1123	 0.301091225093998 
1124	 0.301973705686647 
1125	 0.310403289499159 
1126	 0.404952124264606 
1127	 0.439653022728073 
1128	 0.439425049018676 
1129	 0.41903475277656 
1130	 0.376546996485262 
1131	 0.332111982731391 
1132	 0.301286597700169 
1133	 0.297037712310931 
1134	 0.339036867149766 
1135	 0.351434706298813 
1136	 0.355973364841627 
1137	 0.37418736537545 
1138	 0.364118121011177 
1139	 0.375079323938593 
1140	 0.383916295867197 
1141	 0.375075826321331 
1142	 0.377481821166699 
1143	 0.382179909250803 
1144	 0.379632909196809 
1145	 0.38105302476005 
1146	 0.378820602710511 
1147	 0.367720135833248 
1148	 0.362813769693779 
1149	 0.356825048696841 
1150	 0.367671422732333 
1151	 0.367528087462867 
1152	 0.348695888629124 
1153	 0.342745072633995 
1154	 0.330446772134301 
1155	 0.322610510425455 
1156	 0.328363391494807 
1157	 0.3388533835533 
1158	 0.348184239329819 
1159	 0.348748044946639 
1160	 0.348192641370048 
1161	 0.346508349226308 
1162	 0.338747789549408 
1163	 0.336020373805958 
1164	 0.335000526672138 
1165	 0.335171607751061 
1166	 0.337492341573921 
1167	 0.33733698374115 
1168	 0.336914346660357 
1169	 0.339450165457957 
1170	 0.340098370037238 
1171	 0.338233972690215 
1172	 0.339290875260087 
1173	 0.340954815408982 
1174	 0.340850624597503 
1175	 0.341478145892184 
1176	 0.341585903737632 
1177	 0.340633571597506 
1178	 0.340075568442031 
1179	 0.340409851136719 
1180	 0.340089329683 
1181	 0.338197331048972 
1182	 0.337587290355538 
1183	 0.336934273982804 
1184	 0.337068630936336 
1185	 0.339499922259113 
1186	 0.343671495616712 
1187	 0.344161568031275 
1188	 0.343533409029814 
1189	 0.344054349377534 
1190	 0.343747278485757 
1191	 0.34504683203136 
1192	 0.346886337318661 
1193	 0.346527918180294 
1194	 0.342170684296704 
1195	 0.342551684790117 
1196	 0.345112404220314 
1197	 0.345516700747396 
1198	 0.347080160305666 
1199	 0.348504440985625 
1200	 0.348526288212366 
1201	 0.349161020528667 
1202	 0.351622922666889 
1203	 0.352062868679149 
1204	 0.351064191737863 
1205	 0.350138936140729 
1206	 0.348938702440193 
1207	 0.348450368776048 
1208	 0.349479073704539 
1209	 0.349552744964182 
1210	 0.349806440155022 
1211	 0.351029578972533 
1212	 0.351491422029767 
1213	 0.350290067129454 
1214	 0.351335154839791 
1215	 0.354796759065618 
1216	 0.354659856744617 
1217	 0.353262495819856 
1218	 0.352843305894813 
1219	 0.34990187820999 
1220	 0.348976621812879 
1221	 0.349112422078607 
1222	 0.351873060229599 
1223	 0.352490575762042 
1224	 0.354519758046547 
1225	 0.356318143409971 
1226	 0.355831151829252 
1227	 0.356653787397028 
1228	 0.356417261921772 
1229	 0.355236130492517 
1230	 0.353382406527338 
1231	 0.352339226414907 
1232	 0.349585107095718 
1233	 0.349244034386451 
1234	 0.351074351904746 
1235	 0.351473386375814 
1236	 0.352113318057637 
1237	 0.352524227736581 
1238	 0.352275173497221 
1239	 0.352649059797558 
1240	 0.353635943325925 
1241	 0.354229341772097 
1242	 0.355130868236673 
1243	 0.355101456454646 
1244	 0.354720665928989 
1245	 0.35465388568686 
1246	 0.355864058225355 
1247	 0.355814315809765 
1248	 0.354241333222966 
1249	 0.351323271477777 
1250	 0.350274620775344 
1251	 0.347741869501756 
1252	 0.347372980342367 
1253	 0.350403030071508 
1254	 0.350610944564801 
1255	 0.349063892494648 
1256	 0.349219258151387 
1257	 0.349325983395521 
1258	 0.349931565515139 
1259	 0.352453317805572 
1260	 0.35361255682885 
1261	 0.354861570047538 
1262	 0.354894444086758 
1263	 0.353589717080123 
1264	 0.352023320724461 
1265	 0.350597108631467 
1266	 0.348633540157728 
1267	 0.346545465205808 
1268	 0.345936375500338 
1269	 0.345836763693122 
1270	 0.345674834217884 
1271	 0.346720605056492 
1272	 0.349996934350524 
1273	 0.351296958190352 
1274	 0.351962222992406 
1275	 0.352884584378479 
1276	 0.353793063637677 
1277	 0.353853476999074 
1278	 0.353584280794917 
1279	 0.353657621850307 
1280	 0.352918233207345 
1281	 0.352593670028448 
1282	 0.35313092772283 
1283	 0.352867029980236 
1284	 0.3510832751468 
1285	 0.351479652341529 
1286	 0.352049830826082 
1287	 0.352680688535267 
1288	 0.352745690204307 
1289	 0.352266344623149 
1290	 0.351334826150603 
1291	 0.348750384445583 
1292	 0.347502096992347 
1293	 0.347037527474417 
1294	 0.34552442805086 
1295	 0.343519890810103 
1296	 0.341942478542518 
1297	 0.339232879607049 
1298	 0.33849447763309 
1299	 0.339021824873387 
1300	 0.339031432661983 
1301	 0.340962948584552 
1302	 0.341551671201059 
1303	 0.340885884068228 
1304	 0.341252865071865 
1305	 0.342434182352561 
1306	 0.341539320422419 
1307	 0.338978323153384 
1308	 0.337875177619178 
1309	 0.335362373778081 
1310	 0.332977179651964 
1311	 0.33344075016348 
1312	 0.332869538819904 
1313	 0.331804368008844 
1314	 0.330186696694583 
1315	 0.329041044870863 
1316	 0.327064840207807 
1317	 0.327025078798243 
1318	 0.32921440226485 
1319	 0.328706999810366 
1320	 0.32750095235323 
1321	 0.326758193236726 
1322	 0.322912965542175 
1323	 0.323170540443561 
1324	 0.32806138975254 
1325	 0.330518324089311 
1326	 0.334267936934517 
1327	 0.337241394658036 
1328	 0.338375426771251 
1329	 0.340095153171881 
1330	 0.346992178133706 
1331	 0.346569130177485 
1332	 0.337014363538139 
1333	 0.327636397986442 
1334	 0.322481616818423 
1335	 0.318223442408968 
1336	 0.319498709023641 
1337	 0.336930391947247 
1338	 0.337095386911718 
1339	 0.326967606562156 
1340	 0.326579227867996 
1341	 0.324676258671731 
1342	 0.324646024816823 
1343	 0.338641660739831 
1344	 0.337524713077763 
1345	 0.316340413517271 
1346	 0.303901238243073 
1347	 0.273360122799611 
1348	 0.253055593816322 
1349	 0.254046269643764 
1350	 0.279846289841794 
1351	 0.45651846828377 
1352	 0.651203658562215 
1353	 1.53179770452182 
1354	 12.6984189517247 
1355	 0.520823895961559 
1356	-0.837764130553344 
1357	 0.175877726060203 
1358	 0.161682530839203 
1359	 1.05460621955226 
1360	-14.1303823064302 
1361	 0.720932650756933 
1362	 1.1807833452266 
1363	 1.18499536309574 
1364	 1.08793459299036 
1365	 1.23123205909448 
1366	 2.32026513418136 
1367	 2.19569928344921 
1368	 1.53450545225552 
1369	 1.10414346384179 
1370	 0.389380529844454 
1371	 0.246797867985772 
1372	 0.276536558844107 
1373	 0.256415219063991 
1374	 0.408686408764287 
1375	 0.385400245887851 
1376	 0.178991043352671 
1377	 0.148400755867616 
1378	 0.237725998148496 
1379	 0.185050121908691 
1380	 0.197279777175624 
1381	 0.132007944452519 
1382	-0.191198655432878 
1383	-0.302044478122241 
1384	-0.762346382124934 
1385	-3.09837677776358 
1386	 0.345745125113714 
1387	-0.460785906002112 
1388	-0.881749151137143 
1389	-2.21367033810837 
1390	-3.65629653712509 
1391	 4.556404917508 
1392	 2.38062338380423 
1393	-2.77430931099274 
1394	 3.53237704643636 
1395	-0.328546317033002 
1396	-0.918252558645201 
1397	-6.20670386418801 
1398	-9.2896089391054 
1399	 7.11783818992105 
1400	 6.4767200190388 
1401	-1.23147537754209 
1402	-2.43018589880732 
1403	 1.26608851808553 
1404	 1.02356206850534 
1405	 0.677242077250754 
1406	 0.570310699329306 
1407	 1.2866396369726 
1408	-0.251726179273484 
1409	 1.67606616440659 
1410	 1.2936661372454 
1411	-3.09217643027138 
1412	-21.4551186421221 
1413	-1.09236538788147 
1414	-49.7260403074709 
1415	-2.44355720447854 
1416	 8.74052002745444 
1417	 0.607818273098519 
1418	 0.398606709563895 
1419	 2.07083201953976E-02 
1420	-0.414142424000514 
1421	-0.447358352936074 
1422	-0.450101669388917 
1423	-0.278898183681174 
1424	 0.26942540381932 
1425	 0.473213347081864 
1426	 0.527701337339583 
1427	 0.612068983361303 
1428	 0.620732436082931 
1429	 0.618098022378378 
1430	 0.597185590067829 
1431	 0.634227894864935 
1432	 0.772009261324672 
1433	 0.693069797676084 
1434	 0.563157570823827 
1435	 0.380598343999417 
1436	 9.49775427759046E-02 
1437	-2.89761556630873E-02 
1438	-0.229684566486567 
1439	-0.297691549626898 
1440	-0.365979288365399 
1441	-0.319512576112591 
1442	 0.157580248776457 
1443	 0.443956287974241 
1444	 0.766812719355541 
1445	 0.766052231371688 
1446	 0.619637769719282 
1447	 0.540350086434389 
1448	 0.345975769484908 
1449	 0.342081915664526 
1450	 0.450251408366154 
1451	 0.466622124074088 
1452	 0.525028691004285 
1453	 0.539420527514206 
1454	 0.484430834911619 
1455	 0.420690810776079 
1456	 0.422137908871532 
1457	 0.398996297001848 
1458	 0.396048911502543 
1459	 0.41093876851843 
1460	 0.364633331876723 
1461	 0.273828139872766 
1462	 0.27161378824409 
1463	 0.261562780545885 
1464	 0.275081175071574 
1465	 0.436508144747157 
1466	 0.466413729079814 
1467	 0.349968435645074 
1468	 0.339982594399878 
1469	 0.333576824007833 
1470	 0.361346438329359 
1471	 0.49364427895576 
1472	 0.462145465062564 
1473	 0.340928257576195 
1474	 0.312091220058166 
1475	 0.23659214067096 
1476	 0.238873876162826 
1477	 0.351632124124727 
1478	 0.356898881100837 
1479	 0.298896927959204 
1480	 0.305314124012703 
1481	 0.325205569874419 
1482	 0.315436683747084 
1483	 0.334860223151593 
1484	 0.326109573353609 
1485	 0.262004069076765 
1486	 0.249709975570676 
1487	 0.268555011062903 
1488	 0.269983349866687 
1489	 0.2760937609908 
1490	 0.27844916886647 
1491	 0.264342662158719 
1492	 0.2689337979547 
1493	 0.287163903568549 
1494	 0.294693027453135 
1495	 0.31018094846399 
1496	 0.313679070279102 
1497	 0.302130068133768 
1498	 0.298417508188579 
1499	 0.29236271259122 
1500	 0.291749430953877 
1501	 0.294522454063094 
1502	 0.297921048451283 
1503	 0.300280366329164 
1504	 0.297301340482823 
1505	 0.296504980397679 
1506	 0.29450517286956 
1507	 0.294314023151083 
1508	 0.294665983249242 
1509	 0.29537618417013 
1510	 0.297341548354784 
1511	 0.296759094611882 
1512	 0.293341288395744 
1513	 0.296217268683692 
1514	 0.300311971432846 
1515	 0.304787662040654 
1516	 0.314591388972309 
1517	 0.319161083637017 
1518	 0.321535379942404 
1519	 0.322545338707089 
1520	 0.322511669598881 
1521	 0.322079650301263 
1522	 0.319658055744469 
1523	 0.317592438033409 
1524	 0.315405095231732 
1525	 0.312977440356682 
1526	 0.308848639533918 
1527	 0.307729274883733 
1528	 0.306499628618663 
1529	 0.308663684261636 
1530	 0.31532862634103 
1531	 0.318210373626701 
1532	 0.32216670294412 
1533	 0.324136646080905 
1534	 0.323801755075053 
1535	 0.323639515205076 
1536	 0.323094731093659 
1537	 0.321923682057649 
1538	 0.317968926545003 
1539	 0.3170289395894 
1540	 0.317308563723931 
1541	 0.318554912977033 
1542	 0.322945173969215 
1543	 0.325065754592226 
1544	 0.326619009384582 
1545	 0.327628343736586 
1546	 0.327160063946073 
1547	 0.327309490811567 
1548	 0.326332951413143 
1549	 0.327717907379023 
1550	 0.332759226571183 
1551	 0.334055263753123 
1552	 0.334788718824835 
1553	 0.33487558195254 
1554	 0.332756936784544 
1555	 0.329404264564941 
1556	 0.322860569038596 
1557	 0.320918487553104 
1558	 0.319079849455235 
1559	 0.319062264788315 
1560	 0.325927400139825 
1561	 0.329218075078461 
1562	 0.330951144592862 
1563	 0.331708577996907 
1564	 0.333122638728908 
1565	 0.33203579316215 
1566	 0.328663624729488 
1567	 0.329233816581055 
1568	 0.32974345148767 
1569	 0.327721755814542 
1570	 0.329155908263286 
1571	 0.328923633042986 
1572	 0.326925755177729 
1573	 0.328234170238389 
1574	 0.332072927219207 
1575	 0.33330293718049 
1576	 0.332764417446978 
1577	 0.334765764061595 
1578	 0.336994409716674 
1579	 0.33935388702513 
1580	 0.341691658774441 
1581	 0.341660629709579 
1582	 0.340592054259292 
1583	 0.338585928684366 
1584	 0.336503160989074 
1585	 0.338504058787488 
1586	 0.339748714025752 
1587	 0.341454091871065 
1588	 0.342736716785021 
1589	 0.345734266014055 
1590	 0.343965726006 
1591	 0.338459715985422 
1592	 0.337056955781533 
1593	 0.334470780830462 
1594	 0.335159941331801 
1595	 0.340761813198078 
1596	 0.341529355172486 
1597	 0.341224060837546 
1598	 0.34093864671506 
1599	 0.338515927299041 
1600	 0.33846770343247 
1601	 0.339075575995417 
1602	 0.339151557092149 
1603	 0.339406276964043 
1604	 0.340574170890591 
1605	 0.342495855921154 
1606	 0.344392045601687 
1607	 0.34931478605301 
1608	 0.347706396849757 
1609	 0.340883873360593 
1610	 0.338895297562034 
1611	 0.334506858729235 
1612	 0.335026855660373 
1613	 0.341955898481244 
1614	 0.344664437123787 
1615	 0.347119358946985 
1616	 0.346933182157254 
1617	 0.34360906648137 
1618	 0.343632358177653 
1619	 0.344509458436423 
1620	 0.344936830611266 
1621	 0.347353161874391 
1622	 0.346915255151013 
1623	 0.343440428354379 
1624	 0.342675027792958 
1625	 0.341720244303201 
1626	 0.343086471647634 
1627	 0.34807735655739 
1628	 0.347338287920158 
1629	 0.344605928716905 
1630	 0.344877004606867 
1631	 0.342479890631877 
1632	 0.342995865113069 
1633	 0.348055024138448 
1634	 0.348538583433565 
1635	 0.34704356285239 
1636	 0.346656987052726 
1637	 0.34656053742716 
1638	 0.346637220748038 
1639	 0.346079106054265 
1640	 0.345466327254679 
1641	 0.344120721521579 
1642	 0.343369136328535 
1643	 0.343607603749123 
1644	 0.342905172718276 
1645	 0.341149224130809 
1646	 0.343301912752742 
1647	 0.347102230408944 
1648	 0.348606377286431 
1649	 0.353355997763348 
1650	 0.352300064068933 
1651	 0.345953057951108 
1652	 0.343557328316913 
1653	 0.340623870512515 
1654	 0.338779129525963 
1655	 0.337259029606244 
1656	 0.337896447877855 
1657	 0.341051675155948 
1658	 0.341027202138705 
1659	 0.341619667305847 
1660	 0.341219328713713 
1661	 0.337077521730752 
1662	 0.337739834769547 
1663	 0.337977190852427 
1664	 0.33546233172773 
1665	 0.338634402583071 
1666	 0.338639055213937 
1667	 0.336117439866615 
1668	 0.3409140719812 
1669	 0.33892480691197 
1670	 0.340760428092466 
1671	 0.34923843816076 
1672	 0.348274682928725 
1673	 0.350400337571525 
1674	 0.35066435596949 
1675	 0.346289773381366 
1676	 0.345342413194278 
1677	 0.347070283941074 
1678	 0.345993652463198 
1679	 0.344549624273476 
1680	 0.347016156855413 
1681	 0.344857156097335 
1682	 0.34401386108948 
1683	 0.345054578852435 
1684	 0.345364325791109 
1685	 0.347215768615802 
1686	 0.349772044905951 
1687	 0.353248588120834 
1688	 0.355614784862736 
1689	 0.354984023508515 
1690	 0.356438930051096 
1691	 0.363833420759067 
1692	 0.364282971048991 
1693	 0.366134112999272 
1694	 0.369899715625286 
1695	 0.36012369744319 
1696	 0.357237689811642 
1697	 0.360495684112747 
1698	 0.359933689567217 
1699	 0.364310724480497 
1700	 0.361078186848892 
1701	 0.353617096310103 
1702	 0.348523848631191 
1703	 0.340437413088156 
1704	 0.340495159860942 
1705	 0.344075501541563 
1706	 0.33996718324996 
1707	 0.33719275012537 
1708	 0.336959891781628 
1709	 0.334636297480478 
1710	 0.33940879876108 
1711	 0.348260670636721 
1712	 0.352022333550129 
1713	 0.353541786961742 
1714	 0.354726781348021 
1715	 0.352473959318214 
1716	 0.349591456717675 
1717	 0.353627707474021 
1718	 0.354791493494477 
1719	 0.353249192046917 
1720	 0.353609028538026 
1721	 0.352089460145707 
1722	 0.347749746097879 
1723	 0.34676597855152 
1724	 0.34535757876251 
1725	 0.34352069273739 
1726	 0.345690620322102 
1727	 0.344186684514742 
1728	 0.338986436937385 
1729	 0.341680000019247 
1730	 0.348241525358412 
1731	 0.351627287543992 
1732	 0.362275493881816 
1733	 0.363530964507633 
1734	 0.35276570654258 
1735	 0.343839726234093 
1736	 0.330959675181835 
1737	 0.320397883134155 
1738	 0.312549565411494 
1739	 0.30800101325556 
1740	 0.303441174319685 
1741	 0.302678048357472 
1742	 0.302319857396096 
1743	 0.297833029477481 
1744	 0.29539345630235 
1745	 0.309808889168478 
1746	 0.324014972438546 
1747	 0.337947183708494 
1748	 0.358489218997449 
1749	 0.351238239321355 
1750	 0.335818837567301 
1751	 0.332351882782727 
1752	 0.325693414291642 
1753	 0.328192963015179 
1754	 0.330859319987976 
1755	 0.333882019003475 
1756	 0.338398620813876 
1757	 0.338482487883863 
1758	 0.351583835843085 
1759	 0.358987425398856 
1760	 0.35807726824888 
1761	 0.357893862534223 
1762	 0.349619655242124 
1763	 0.345663447042277 
1764	 0.348384754004495 
1765	 0.356830441353167 
1766	 0.372565384017014 
1767	 0.387401032398745 
1768	 0.378076253105047 
1769	 0.360984561468514 
1770	 0.353745214588805 
1771	 0.341128756914525 
1772	 0.333850736063424 
1773	 0.335408006278033 
1774	 0.339478875613456 
1775	 0.336037877227059 
1776	 0.336738709513501 
1777	 0.334452614548841 
1778	 0.322235735679674 
1779	 0.290071185447193 
1780	 0.282033471743336 
1781	 0.292123008104788 
1782	 0.293273911755144 
1783	 0.27608749654776 
1784	 0.253306011605117 
1785	 0.254055845453828 
1786	 0.251608970157678 
1787	 0.259422080580147 
1788	 0.287045641333065 
1789	 0.262273423148684 
1790	 0.219846355322719 
1791	 0.209422974903768 
1792	 0.208950578010356 
1793	 0.22662666807417 
1794	 0.28841577998174 
1795	 0.280208805920361 
1796	 0.196216730019732 
1797	 0.135642561933827 
1798	-1.02189611455486E-02 
1799	 4.72338826270465E-02 
1800	 0.205185451624107 
1801	 0.705149984865459 
1802	 0.711145709684375 
1803	 0.793754484300115 
1804	 0.853096009258689 
1805	 0.722051793760847 
1806	 0.906609856315338 
1807	 0.957925927285335 
1808	 1.0054497977374 
1809	 0.962713344188791 
1810	 0.894322430182408 
1811	 0.830050457854813 
1812	 0.696109059634345 
1813	 0.677282537981581 
1814	 0.675515102354399 
1815	 0.693077549725036 
1816	 0.775502851318209 
1817	 0.985326734957929 
1818	 1.02441761859128 
1819	 0.977204357934309 
1820	 0.951484440727385 
1821	 0.851211587097478 
1822	 0.79519067109662 
1823	 0.72687248752822 
1824	 0.69330306649574 
1825	 0.67829226096662 
1826	 0.62623600903039 
1827	 0.629232047613602 
1828	 0.711755821885933 
1829	 0.73519099953307 
1830	 0.713126048704333 
1831	 0.778233130582479 
1832	 0.985913319303864 
1833	 1.1735956318253 
1834	 1.57265630207631 
1835	 1.81701696884301 
1836	 1.81132903750673 
1837	 1.34733851464848 
1838	 1.22000120957032 
1839	 1.07633481597922 
1840	 1.01045401859972 
1841	 0.981899106471121 
1842	 0.908974807000947 
1843	 0.707818282442798 
1844	 0.673375559015698 
1845	 0.928258718190492 
1846	 0.886063726500302 
1847	 0.828547370314229 
1848	 0.729504905345003 
1849	 0.746483628694176 
1850	 0.641053550464722 
1851	 0.653016539400915 
1852	 0.943613795856601 
1853	 0.997177065286356 
1854	 0.954410038597586 
1855	 0.887872632733054 
1856	 0.789395604793188 
1857	 0.622608007793193 
1858	 0.56397589942366 
1859	 0.401492281891238 
1860	 0.426483713917294 
1861	 0.670540493944597 
1862	 0.901394504898956 
1863	 1.50930183858306 
1864	 1.88081392236736 
1865	 2.09268172620052 
1866	 2.06125703034186 
1867	 1.81982969836545 
1868	 1.25624622572158 
1869	 1.103334129746 
1870	 0.87867041300639 
1871	 0.845400614581275 
1872	 1.22828282418134 
1873	 1.18625089366759 
1874	 0.892953455506706 
1875	 0.821257965899185 
1876	 0.663557206656776 
1877	 0.559669239390611 
1878	 0.482019648202492 
1879	 0.464391986415503 
1880	 0.55064201975419 
1881	 0.661081158316024 
1882	 0.729824176000444 
1883	 1.00118257455926 
1884	 1.07250950864335 
1885	 0.939972518467078 
1886	 0.892348557927231 
1887	 0.795426312007094 
1888	 0.707803201193611 
1889	 0.728422652010607 
1890	 0.882736094825734 
1891	 0.988199418517986 
1892	 1.26229391946538 
1893	 1.39207092994759 
1894	 1.57663520090208 
1895	 1.49976390372526 
1896	 1.10990363111852 
1897	 0.918395237319275 
1898	 0.756548676065541 
1899	 0.593057403294905 
1900	 0.547796640289357 
1901	 0.583091447271818 
1902	 0.53182105705594 
1903	 0.438895476357343 
1904	 0.418528734801434 
1905	 0.362143560498149 
1906	 0.382829540637663 
1907	 0.476111570989659 
1908	 0.652704141545125 
1909	 0.760067701499883 
1910	 0.854172532708798 
1911	 0.937481001019926 
1912	 1.03483290493256 
1913	 0.957869972822975 
1914	 0.71190012631506 
1915	 0.597494281634245 
1916	 0.421082624939859 
1917	 0.401660886380467 
1918	 0.505016851606744 
1919	 0.618633439705209 
1920	 0.71221081172417 
1921	 0.631599822557623 
1922	 0.685086438648153 
1923	 0.796246324450568 
1924	 0.904033492164738 
1925	 1.27107748572212 
1926	 1.42437152093712 
1927	 1.23378064049753 
1928	 1.07283831263343 
1929	 0.781646207977904 
1930	 0.758447493428733 
1931	 0.690781469086485 
1932	 0.59991883336453 
1933	 0.718537520423202 
1934	 0.770475206277273 
1935	 0.804659644739251 
1936	 0.975794757983073 
1937	 1.00044358859822 
1938	 0.747771247045042 
1939	 0.705303236405981 
1940	 0.807691026937733 
1941	 0.686195598055374 
1942	 0.622204426411365 
1943	 0.675694884057154 
1944	 0.53875906161106 
1945	 0.391311321572403 
1946	 0.371887455290638 
1947	 0.427632038842982 
1948	 0.482795418769712 
1949	 0.688585705390949 
1950	 0.707023744268123 
1951	 0.609133024266015 
1952	 0.552878156874601 
1953	 0.339267889464982 
1954	 0.270190860118655 
1955	 0.424348421514408 
1956	 0.528903590658692 
1957	 0.600637438781964 
1958	 0.649418722178717 
1959	 0.703108839272116 
1960	 0.667173659616526 
1961	 0.738512478077819 
1962	 0.977916046746383 
1963	 1.07578807405241 
1964	 1.18813894745704 
1965	 1.13766655473627 
1966	 1.00756689736466 
1967	 0.907593516961367 
1968	 0.735974573579947 
1969	 0.645283208851254 
1970	 0.628098204101863 
1971	 0.688977375637996 
1972	 0.668662402637856 
1973	 0.772554042770807 
1974	 0.751276820048039 
1975	 0.596462556432302 
1976	 0.569192726715531 
1977	 0.569338178525091 
1978	 0.604833275871958 
1979	 0.622179046706894 
1980	 0.582249353269138 
1981	 0.584382630318706 
1982	 0.564925557333403 
1983	 0.560901129717678 
1984	 0.594698028468868 
1985	 0.587960131996374 
1986	 0.548999082098649 
1987	 0.555725455723637 
1988	 0.546697378369829 
1989	 0.586301176235845 
1990	 0.699899995536397 
1991	 0.737186505093724 
1992	 0.706087244159602 
1993	 0.69883674394691 
1994	 0.66949519050284 
1995	 0.688939991776133 
1996	 0.717698050211662 
1997	 0.827386060973012 
1998	 0.899703872762128 
1999	 0.975062673247301 
2000	 0.967776973055632 
2001	 0.945838481803147 
2002	 0.922381482088396 
2003	 0.671767882009207 
2004	 0.510915959460036 
2005	 0.431600886238724 
2006	 0.394161440653236 
2007	 0.429095191904408 
2008	 0.479324379366339 
2009	 0.489432819613339 
2010	 0.407480247696622 
2011	 0.435493128716339 
2012	 0.529081103984332 
2013	 0.596931082178689 
2014	 0.707895209719084 
2015	 0.778735110677435 
2016	 0.755118730606133 
2017	 0.725390599397609 
2018	 0.729541787936722 
2019	 0.746889546544954 
2020	 0.768819305236201 
2021	 0.677346208001383 
2022	 0.649776731616542 
2023	 0.717510660998568 
2024	 0.713986295920966 
2025	 0.76839502217744 
2026	 0.776962893915749 
2027	 0.791054991786863 
2028	 0.595541838754779 
2029	 0.521201194896953 
2030	 0.48281220102139 
2031	 0.44308728025866 
2032	 0.463801453265249 
2033	 0.465336331256152 
2034	 0.415746102602846 
2035	 0.373498227353089 
2036	 0.348545931288021 
2037	 0.352643168147738 
2038	 0.419680538892884 
2039	 0.443964319064179 
2040	 0.485141170304618 
2041	 0.479513474026835 
2042	 0.438987319835054 
2043	 0.362864169076936 
2044	 0.329929307221728 
2045	 0.305366118903655 
2046	 0.315618538950322 
2047	 0.387900721099152 
2048	 0.44525804902586 
2049	 0.494519557436776 
2050	 0.584961850979022 
2051	 0.630757909983382 
2052	 0.658593144118852 
2053	 0.646010375041515 
2054	 0.67004226716741 
2055	 0.686039113651297 
2056	 0.701654229868277 
2057	 0.711503190507169 
2058	 0.657279728466164 
2059	 0.582232686417326 
2060	 0.499821181386567 
2061	 0.447027546212099 
2062	 0.447712716248871 
2063	 0.437676585292966 
2064	 0.451274792269322 
2065	 0.448587463116118 
2066	 0.429333728112801 
2067	 0.464293982011031 
2068	 0.564304258935565 
2069	 0.592272316854336 
2070	 0.616905674895121 
2071	 0.606577466912979 
2072	 0.589118857471273 
2073	 0.518552560143933 
2074	 0.505096670741857 
2075	 0.53831460059857 
2076	 0.53837191770979 
2077	 0.534689930437604 
2078	 0.52397440314658 
2079	 0.510948870461215 
2080	 0.476613539992189 
2081	 0.423470166341974 
2082	 0.387997270093012 
2083	 0.309686830089388 
2084	 0.295337625528678 
2085	 0.311312035931154 
2086	 0.375439399011929 
2087	 0.434674134819877 
2088	 0.467558757328467 
2089	 0.458420871663715 
2090	 0.433773872200937 
2091	 0.38713124734572 
2092	 0.35470896116844 
2093	 0.317241281288147 
2094	 0.320558507366668 
2095	 0.373465503636127 
2096	 0.428225669346235 
2097	 0.486567879703997 
2098	 0.506262620964836 
2099	 0.523291673378904 
2100	 0.507202782444621 
2101	 0.487342988969931 
2102	 0.460204401138061 
2103	 0.464134838483245 
2104	 0.41180331659397 
2105	 0.395892196969931 
2106	 0.380103752064063 
2107	 0.33675326333626 
2108	 0.327298307105914 
2109	 0.34490146893767 
2110	 0.373144211632415 
2111	 0.388613775586746 
2112	 0.393605538273505 
2113	 0.358727033574601 
2114	 0.325780367848116 
2115	 0.267771614711799 
2116	 0.263569219235612 
2117	 0.275670206332803 
2118	 0.283394818126574 
2119	 0.325910448583901 
2120	 0.327073243704981 
2121	 0.320250840406539 
2122	 0.32408383139787 
2123	 0.321254874329738 
2124	 0.340721669566495 
2125	 0.337960188444827 
2126	 0.348744552776462 
2127	 0.38424655977962 
2128	 0.399057491666729 
2129	 0.43898431244607 
2130	 0.449953587524407 
2131	 0.407266807535014 
2132	 0.380529309015853 
2133	 0.35705332820989 
2134	 0.303256773904108 
2135	 0.300161220884336 
2136	 0.330186011236385 
2137	 0.358331366126299 
2138	 0.391470101655997 
2139	 0.414543811535459 
2140	 0.434944914845359 
2141	 0.434274761571224 
2142	 0.42037572885632 
2143	 0.41250270069414 
2144	 0.389429943088463 
2145	 0.380615527441354 
2146	 0.378593648580322 
2147	 0.368677576884751 
2148	 0.384826689218314 
2149	 0.388337130717146 
2150	 0.398320235633043 
2151	 0.424077596019869 
2152	 0.445563885952588 
2153	 0.47079753128476 
2154	 0.479441545123905 
2155	 0.483615648566668 
2156	 0.476845142289608 
2157	 0.4387836070821 
2158	 0.420701180023152 
2159	 0.38823557838867 
2160	 0.351097186005014 
2161	 0.35906188438334 
2162	 0.356502016246491 
2163	 0.384433122628362 
2164	 0.407171836031833 
2165	 0.416436575050484 
2166	 0.393232583522412 
2167	 0.34138261554851 
2168	 0.336281581528462 
2169	 0.307163932714799 
2170	 0.296193849166876 
2171	 0.306917082529058 
2172	 0.337168101594021 
2173	 0.364108185898694 
2174	 0.439248549881298 
2175	 0.445950125228304 
2176	 0.420632507041125 
2177	 0.397897655870104 
2178	 0.326364965152473 
2179	 0.280934978703508 
2180	 0.25969646880093 
2181	 0.201295181704017 
2182	 0.180228134158452 
2183	 0.169917026125249 
2184	 0.181054690789183 
2185	 0.261657519081852 
2186	 0.350081371245681 
2187	 0.42260328660528 
2188	 0.460120549913893 
2189	 0.468698623982755 
2190	 0.423286666404021 
2191	 0.417464185168397 
2192	 0.438293147385004 
2193	 0.506375411360034 
2194	 0.527789492949856 
2195	 0.563342046334357 
2196	 0.555272774639649 
2197	 0.511263661845227 
2198	 0.454972560557456 
2199	 0.40980749700108 
2200	 0.399675325603063 
2201	 0.396284248259905 
2202	 0.430756233657175 
2203	 0.475343796607514 
2204	 0.489050366936356 
2205	 0.478849076755504 
2206	 0.428536851245221 
2207	 0.348524949796661 
2208	 0.328134353637267 
2209	 0.288980517124642 
2210	 0.278102468619902 
2211	 0.318391184136752 
2212	 0.287076596215301 
2213	 0.266801557314304 
2214	 0.299637322962402 
2215	 0.29992951201084 
2216	 0.271382105790851 
2217	 0.281345242898622 
2218	 0.297599958748766 
2219	 0.303257603027943 
2220	 0.352085736868185 
2221	 0.350856913617978 
2222	 0.304202973337925 
2223	 0.292247115436822 
2224	 0.300958519859945 
2225	 0.307954152251046 
2226	 0.342772228723383 
2227	 0.410785368335201 
2228	 0.418332538111441 
2229	 0.363527803690692 
2230	 0.333854186956494 
2231	 0.308615802350417 
2232	 0.299380495176159 
2233	 0.33013684703585 
2234	 0.347597354899854 
2235	 0.359979307031085 
2236	 0.382202477848379 
2237	 0.380977302054644 
2238	 0.385347756822523 
2239	 0.397711373172115 
2240	 0.396182841611368 
2241	 0.431280442843443 
2242	 0.442202715984253 
2243	 0.460247853474113 
2244	 0.441645861279943 
2245	 0.381419602237471 
2246	 0.32964578266509 
2247	 0.266511181420814 
2248	 0.236309437729006 
2249	 0.197605323723473 
2250	 0.217962786804582 
2251	 0.300384638825901 
2252	 0.333264460698903 
2253	 0.425460145663936 
2254	 0.494984910754481 
2255	 0.462427460870357 
2256	 0.445929162204992 
2257	 0.421726900676209 
2258	 0.396793179409255 
2259	 0.40845693242993 
2260	 0.417352036523675 
2261	 0.426405684781772 
2262	 0.429022258194002 
2263	 0.44021678639084 
2264	 0.443191997986333 
2265	 0.451385258221042 
2266	 0.447288510497219 
2267	 0.431467348067393 
2268	 0.475048369881348 
2269	 0.4625918249124 
2270	 0.420643403559331 
2271	 0.400154020930952 
2272	 0.357213832088351 
2273	 0.323261736097436 
2274	 0.297663418174235 
2275	 0.296002496986562 
2276	 0.30118898610208 
2277	 0.312351411078409 
2278	 0.397813315510585 
2279	 0.417953515506828 
2280	 0.369804413047525 
2281	 0.366290170125381 
2282	 0.311696756540441 
2283	 0.311177064372354 
2284	 0.380839726130607 
2285	 0.4029162847499 
2286	 0.374077489469568 
2287	 0.449427213606428 
2288	 0.435732572405692 
2289	 0.45280522132536 
2290	 0.486772014576006 
2291	 0.418438873301757 
2292	 0.457083647018771 
2293	 0.448254435978377 
2294	 0.460337386338996 
2295	 0.526362032618501 
2296	 0.466533802076976 
2297	 0.427805479340694 
2298	 0.39278784326853 
2299	 0.324830572186449 
2300	 0.316680325941974 
2301	 0.320776426945921 
2302	 0.341197785671409 
2303	 0.386637794242324 
2304	 0.389294322065672 
2305	 0.339498545398952 
2306	 0.263033873860432 
2307	 0.191188089456524 
2308	 0.165744550557185 
2309	 0.171665214923372 
2310	 0.190844500972225 
2311	 0.245391106953268 
2312	 0.287238434821144 
2313	 0.312616199628332 
2314	 0.379787958872137 
2315	 0.512584470810531 
2316	 0.563653965395781 
2317	 0.622170164257696 
2318	 0.683576460788932 
2319	 0.674343535408614 
2320	 0.678836600767943 
2321	 0.741427068824497 
2322	 0.701340566217946 
2323	 0.556090013984046 
2324	 0.46869428269528 
2325	 0.318507705872857 
2326	 0.280914769238599 
2327	 0.345030691087944 
2328	 0.370821490022528 
2329	 0.464887533761978 
2330	 0.558003151104437 
2331	 0.673791864625033 
2332	 0.73132352511295 
2333	 0.736852518702846 
2334	 0.700322710287393 
2335	 0.60151123593342 
2336	 0.50632831107197 
2337	 0.411561672659921 
2338	 0.375012162681915 
2339	 0.401754793614616 
2340	 0.434691694118226 
2341	 0.480400871520999 
2342	 0.50714690495923 
2343	 0.437980474722286 
2344	 0.397180362289854 
2345	 0.3887907303105 
2346	 0.370404770872978 
2347	 0.409607280144523 
2348	 0.350815690623889 
2349	 0.353426965283402 
2350	 0.419887644484249 
2351	 0.475921961171733 
2352	 0.618620734066687 
2353	 0.614209749177396 
2354	 0.640726621676362 
2355	 0.593642731751242 
2356	 0.500712371253091 
2357	 0.582238769987111 
2358	 0.586315297809943 
2359	 0.67275976244884 
2360	 1.0549213074171 
2361	 1.0073149318426 
2362	 0.827644847464038 
2363	 0.764857465847287 
2364	 0.490140930188527 
2365	 0.375452039830075 
2366	 0.459403220183738 
2367	 0.458284692643588 
2368	 0.552164413964632 
2369	 0.724560021155408 
2370	 0.729817394647921 
2371	 0.751212479096009 
2372	 0.764402226981347 
2373	 0.665807797255173 
2374	 0.466173522011289 
2375	 0.364583969626462 
2376	 0.214303141681783 
2377	 0.223046294758091 
2378	 0.338307483486979 
2379	 0.484470934739538 
2380	 0.979458324566961 
2381	 1.2024386252344 
2382	 1.10254207498904 
2383	 1.14033712106274 
2384	 1.1045495187253 
2385	 1.03495107815627 
2386	 0.996320057919207 
2387	 0.870145098212142 
2388	 0.528950563222812 
2389	 0.379220839114423 
2390	 0.319810416831431 
2391	 0.355637610571252 
2392	 0.507690684163854 
2393	 0.546505390540258 
2394	 0.592357294385425 
2395	 0.651304115925666 
2396	 0.686700869779095 
2397	 0.710097230858104 
2398	 0.863113278079421 
2399	 0.793259072788639 
2400	 0.472404464815054 
2401	 0.349852540220872 
2402	 0.222172737445665 
2403	 0.194921342452743 
2404	 0.300711534095571 
2405	 0.333314549872233 
2406	 0.396980231866449 
2407	 0.400950603197058 
2408	 0.320190230429227 
2409	 0.391487996552206 
2410	 0.47403389077065 
2411	 0.621530375760873 
2412	 0.964853528739928 
2413	 1.12784059479061 
2414	 1.3556015046335 
2415	 1.29068472302192 
2416	 0.946559948026109 
2417	 0.826386263322239 
2418	 0.563371108928809 
2419	 0.501487913248838 
2420	 0.74323719222091 
2421	 0.715482341867674 
2422	 0.619986714596109 
2423	 0.598010667935668 
2424	 0.447634318098419 
2425	 0.522832065823316 
2426	 0.930099672768748 
2427	 0.994747416851121 
2428	 1.01010362327787 
2429	 0.966434801298352 
2430	 0.529788337444547 
2431	 0.430364820645444 
2432	 0.517680942728991 
2433	 0.5337225445424 
2434	 0.629983650554982 
2435	 0.618934811676304 
2436	 0.515287639302797 
2437	 0.652703562453116 
2438	 0.849200963206209 
2439	 1.1633733531839 
2440	 2.06968010864266 
2441	 2.10727304918371 
2442	 1.65458601570575 
2443	 1.41551031532474 
2444	 0.990515144477492 
2445	 0.881038553565289 
2446	 0.899998065614455 
2447	 0.911148827275047 
2448	 0.977673568005266 
2449	 1.08607235948872 
2450	 0.92735450704167 
2451	 0.785286028886867 
2452	 0.66157646723218 
2453	 0.641146381550208 
2454	 0.662457733895811 
2455	 0.503402383575258 
2456	 0.420493211209944 
2457	 0.199040086992961 
2458	 0.137090440483013 
2459	 0.922061081040236 
2460	 2.18650909454182 
2461	 6.67709316413155 
2462	 9.0197534687524 
2463	 1.3885011015232 
2464	 1.03567696854258 
2465	 1.05846115479151 
2466	 0.958410669221349 
2467	 1.05666833158781 
2468	 0.994503246387341 
2469	 0.640424114574637 
2470	 0.423071088490647 
2471	 0.383542152681227 
2472	 0.331133961564928 
2473	 0.157167968327406 
2474	 0.266894468377279 
2475	 0.626251694958094 
2476	 0.973770097010268 
2477	 2.60862850027284 
2478	 3.36403765325311 
2479	 2.41605716333834 
2480	 2.00534659285649 
2481	 0.823607398500609 
2482	 0.682870046965719 
2483	 1.22124711793483 
2484	 1.44421704072075 
2485	 1.88182813490856 
2486	 1.95485412580358 
2487	 1.748544929989 
2488	 1.5664468083568 
2489	 1.03513744455864 
2490	 0.924020657061684 
2491	 0.875554088109798 
2492	 1.07835145668364 
2493	 1.80504995661338 
2494	 1.95688332476204 
2495	 2.27308670011521 
2496	 2.05667519330552 
2497	 1.03734280601537 
2498	 0.787483502412651 
2499	 0.789721729363017 
2500	 0.758439878565229 
