Wavelength	000013.asd
350	 0.161610724918152 
351	 0.162508931391618 
352	 0.162643686034224 
353	 0.163897452469349 
354	 0.162520103338258 
355	 0.162389175216073 
356	 0.163913749424011 
357	 0.163809976627915 
358	 0.162694317210898 
359	 0.162782329153925 
360	 0.164062814874915 
361	 0.16297480099462 
362	 0.163612053466757 
363	 0.164569891086053 
364	 0.164585403231461 
365	 0.166205943806703 
366	 0.166554597403511 
367	 0.166345856927671 
368	 0.167161673970053 
369	 0.167986665407317 
370	 0.167802880523435 
371	 0.167018258660268 
372	 0.166936534847931 
373	 0.167008629717614 
374	 0.167649887023764 
375	 0.168609967697996 
376	 0.168755796705061 
377	 0.168987644611042 
378	 0.169316206196091 
379	 0.169762315887688 
380	 0.17103316570611 
381	 0.170692243365255 
382	 0.169509273877387 
383	 0.169246507899983 
384	 0.169906436220004 
385	 0.171483241415398 
386	 0.17329444747644 
387	 0.174234594176407 
388	 0.173437693015052 
389	 0.174276225806102 
390	 0.176661419755869 
391	 0.17603166754729 
392	 0.175723340397733 
393	 0.17593058995011 
394	 0.176144122276202 
395	 0.175692124579495 
396	 0.175932986120756 
397	 0.176751574891199 
398	 0.177566647231442 
399	 0.178022089782209 
400	 0.178706073468075 
401	 0.179475484196918 
402	 0.179809490093697 
403	 0.179946198963839 
404	 0.180749557915989 
405	 0.181729613564095 
406	 0.180673506432945 
407	 0.181070905660287 
408	 0.182060635146302 
409	 0.18242800126272 
410	 0.182893958143224 
411	 0.183021542302125 
412	 0.182861687462035 
413	 0.182747310271554 
414	 0.183316749516387 
415	 0.183864872645513 
416	 0.184236185279248 
417	 0.184798080960614 
418	 0.184957907356014 
419	 0.185236042412493 
420	 0.185797012160107 
421	 0.185782629183758 
422	 0.186484562034553 
423	 0.187143687400666 
424	 0.186930564291174 
425	 0.187314091387391 
426	 0.187658130420298 
427	 0.187855041202666 
428	 0.188179474303187 
429	 0.188705806933074 
430	 0.189064399010676 
431	 0.189163555756451 
432	 0.189341341087417 
433	 0.190345605437382 
434	 0.191137888933771 
435	 0.191029302335526 
436	 0.191470007360102 
437	 0.191692031242156 
438	 0.191828919749684 
439	 0.192334965308805 
440	 0.192794058980231 
441	 0.193178397089262 
442	 0.193580769563834 
443	 0.194172192745242 
444	 0.194376234398411 
445	 0.194447652972753 
446	 0.194692334897716 
447	 0.195089744939103 
448	 0.195617907007764 
449	 0.19608367873472 
450	 0.19628466012189 
451	 0.196380749011989 
452	 0.19659953658341 
453	 0.196950052712809 
454	 0.197219736800259 
455	 0.19771133506975 
456	 0.19821496929441 
457	 0.19850415623148 
458	 0.19852442262334 
459	 0.198836193706285 
460	 0.199249448154934 
461	 0.199353396477004 
462	 0.199549322526258 
463	 0.199662154893197 
464	 0.19970052824539 
465	 0.199893720029824 
466	 0.200151846404241 
467	 0.200541151926517 
468	 0.200964428655316 
469	 0.200808143345355 
470	 0.200786022260232 
471	 0.201022960992715 
472	 0.201343387815065 
473	 0.201411217151397 
474	 0.201778967997982 
475	 0.202389837269221 
476	 0.202510585772692 
477	 0.202406698576871 
478	 0.202595648042358 
479	 0.203210562839314 
480	 0.203256793413768 
481	 0.203291974886154 
482	 0.203571725884956 
483	 0.204073760572858 
484	 0.203787624236592 
485	 0.203541883319036 
486	 0.203786102486403 
487	 0.204276262586622 
488	 0.204990023846437 
489	 0.205626137543977 
490	 0.205921505543315 
491	 0.205753744297584 
492	 0.205960179816184 
493	 0.206474021318128 
494	 0.206778159772826 
495	 0.206840959218167 
496	 0.207030634553307 
497	 0.207343387956909 
498	 0.207241155048181 
499	 0.207578219686373 
500	 0.208119521060967 
501	 0.208413851930881 
502	 0.208262724177286 
503	 0.208544067507748 
504	 0.209205623227757 
505	 0.209630767458996 
506	 0.20993373373494 
507	 0.210118921742605 
508	 0.210314624424925 
509	 0.210855670685675 
510	 0.211081940649924 
511	 0.211268415771913 
512	 0.21172143802173 
513	 0.211684811240905 
514	 0.211769168509808 
515	 0.212096027164218 
516	 0.212376245017964 
517	 0.212657974825941 
518	 0.213015607388848 
519	 0.213374178592518 
520	 0.213312264897881 
521	 0.213797230498448 
522	 0.21447415879956 
523	 0.21470220568972 
524	 0.214831642059698 
525	 0.214742296485747 
526	 0.214717675911961 
527	 0.215407358707349 
528	 0.216016316737618 
529	 0.216323559913567 
530	 0.216355485112399 
531	 0.216324622605298 
532	 0.216623545957359 
533	 0.217127598580672 
534	 0.217480121453675 
535	 0.217836489250301 
536	 0.218225217011624 
537	 0.218598640840889 
538	 0.218813219375348 
539	 0.219230695092562 
540	 0.219766693988364 
541	 0.220254871177254 
542	 0.220748977527488 
543	 0.221025645036205 
544	 0.221228153592751 
545	 0.221700428505537 
546	 0.222151169232227 
547	 0.222539881726166 
548	 0.222901624530744 
549	 0.223355362834975 
550	 0.223721091724643 
551	 0.224055257834035 
552	 0.224504878423007 
553	 0.225263334910311 
554	 0.225850768557138 
555	 0.226166899659195 
556	 0.226510539055399 
557	 0.227024327243855 
558	 0.227593149926707 
559	 0.228101721173524 
560	 0.228622974560741 
561	 0.229228269221177 
562	 0.229754087386949 
563	 0.230009596984415 
564	 0.230464556340971 
565	 0.231234422481844 
566	 0.232118063938893 
567	 0.232519708466194 
568	 0.232791358847115 
569	 0.233259948443525 
570	 0.234068413449795 
571	 0.234645304111542 
572	 0.235189125870619 
573	 0.235701618816556 
574	 0.236046418122456 
575	 0.23646370633962 
576	 0.237038443546858 
577	 0.237686931452871 
578	 0.23800650036861 
579	 0.238521625189329 
580	 0.239169457232672 
581	 0.2396641192833 
582	 0.239870921143325 
583	 0.240188155295528 
584	 0.240700716785466 
585	 0.241089702678561 
586	 0.241450244323665 
587	 0.241638612086535 
588	 0.241595800232252 
589	 0.241719214168206 
590	 0.2422500279646 
591	 0.242897475413445 
592	 0.243118555595471 
593	 0.242786332251866 
594	 0.242765559911239 
595	 0.243251975373017 
596	 0.243121385362444 
597	 0.242900268125677 
598	 0.242892218658298 
599	 0.24315271229912 
600	 0.242825391278109 
601	 0.243008755276587 
602	 0.243700701940446 
603	 0.243881169009793 
604	 0.243872528918757 
605	 0.243945986310859 
606	 0.24423736152806 
607	 0.244570771162221 
608	 0.244694887015371 
609	 0.244674767939985 
610	 0.244737765496663 
611	 0.244928625889307 
612	 0.244994266281054 
613	 0.244890881658753 
614	 0.244904924788871 
615	 0.24495323218074 
616	 0.244935334092251 
617	 0.244820826642317 
618	 0.244903045377058 
619	 0.244806470095688 
620	 0.244584227481213 
621	 0.244597819251575 
622	 0.244794413137072 
623	 0.244808743307632 
624	 0.244611323581813 
625	 0.245101526876257 
626	 0.245074283388475 
627	 0.244792657521315 
628	 0.244987198051546 
629	 0.24523047137938 
630	 0.245299436248862 
631	 0.245249675632585 
632	 0.245412062499281 
633	 0.245438792990222 
634	 0.245418693716401 
635	 0.24547135948689 
636	 0.245493291091828 
637	 0.24560990987482 
638	 0.245905486201238 
639	 0.24637063264256 
640	 0.246349481286845 
641	 0.246429141341128 
642	 0.246742731521107 
643	 0.24640911450217 
644	 0.2463452926752 
645	 0.24660218802784 
646	 0.246926551293018 
647	 0.246972692476752 
648	 0.247038483932309 
649	 0.247122072461535 
650	 0.246961175146865 
651	 0.246853652211196 
652	 0.247024084082439 
653	 0.247406926676366 
654	 0.247310858740995 
655	 0.247395932829161 
656	 0.247371459969431 
657	 0.246771978760998 
658	 0.246870521156508 
659	 0.247078434614108 
660	 0.247167605715465 
661	 0.247372515188852 
662	 0.247076139517536 
663	 0.246924196871532 
664	 0.247361273451846 
665	 0.247272021118487 
666	 0.24694855471653 
667	 0.24682711392274 
668	 0.247301158572336 
669	 0.247491438709363 
670	 0.247389496318162 
671	 0.247185725986515 
672	 0.247224283906211 
673	 0.246992348851605 
674	 0.246634674988472 
675	 0.246492801868812 
676	 0.246891038472023 
677	 0.246866718279796 
678	 0.246588027419336 
679	 0.24706890176544 
680	 0.247451144781055 
681	 0.247578452232811 
682	 0.247464483415082 
683	 0.247133515853863 
684	 0.247711707240387 
685	 0.248321620205623 
686	 0.24778816560873 
687	 0.248779957748068 
688	 0.249213646612269 
689	 0.248721308421813 
690	 0.249300404106488 
691	 0.250634567141078 
692	 0.25156055405525 
693	 0.251384902781947 
694	 0.251173950145963 
695	 0.25137423848794 
696	 0.251754956319044 
697	 0.251904526421227 
698	 0.252279052120218 
699	 0.252636020873507 
700	 0.252789493318155 
701	 0.252760214865903 
702	 0.253234035339843 
703	 0.253355974393494 
704	 0.252757869462981 
705	 0.253332436883953 
706	 0.253726164961155 
707	 0.253859995181019 
708	 0.254251741139305 
709	 0.254315214754991 
710	 0.254178340283858 
711	 0.253961609789488 
712	 0.253664042920401 
713	 0.253902610770437 
714	 0.254156290382861 
715	 0.254008599293905 
716	 0.254935222065599 
717	 0.25520251126226 
718	 0.254388242053754 
719	 0.253977871069957 
720	 0.253343514316622 
721	 0.253505265650194 
722	 0.254125779362677 
723	 0.253527556676066 
724	 0.253077442254422 
725	 0.252920048565671 
726	 0.252851005003636 
727	 0.253127237799864 
728	 0.252957649634135 
729	 0.252447990104697 
730	 0.25221274406624 
731	 0.251736268786666 
732	 0.2516280672218 
733	 0.251928470310432 
734	 0.252041395606279 
735	 0.251689146978456 
736	 0.251335385815935 
737	 0.251335787959457 
738	 0.250669428113592 
739	 0.250788358456518 
740	 0.251301643792485 
741	 0.250913775535716 
742	 0.250618379668104 
743	 0.250570002919905 
744	 0.250652056042627 
745	 0.250509500096178 
746	 0.250384700246626 
747	 0.250286870196249 
748	 0.2501771596572 
749	 0.250007711507834 
750	 0.25029141254401 
751	 0.250702426093088 
752	 0.250548812623323 
753	 0.250706775425655 
754	 0.250727681119365 
755	 0.250501558620702 
756	 0.250547231258917 
757	 0.251535654980632 
758	 0.252739978061847 
759	 0.253219892524547 
760	 0.251629905303819 
761	 0.250358566229738 
762	 0.250640232217324 
763	 0.250251468727755 
764	 0.250023439934264 
765	 0.250098118888923 
766	 0.250423326379839 
767	 0.250909086686852 
768	 0.251147961425248 
769	 0.251394734188869 
770	 0.25172685372577 
771	 0.251667161743934 
772	 0.251400571796653 
773	 0.251366589289991 
774	 0.251870969922403 
775	 0.251972447618989 
776	 0.25208069301588 
777	 0.252168770659437 
778	 0.251875380491713 
779	 0.252358703626915 
780	 0.252846496677889 
781	 0.252799431154881 
782	 0.252642700971075 
783	 0.252505969778286 
784	 0.252554544784908 
785	 0.252847891576628 
786	 0.253115218079709 
787	 0.253247024718863 
788	 0.253230884221364 
789	 0.253160248790295 
790	 0.253314311898501 
791	 0.253415689619495 
792	 0.253409372630848 
793	 0.253574889043008 
794	 0.253987174273768 
795	 0.253950067358924 
796	 0.253334443618439 
797	 0.253927020729151 
798	 0.254081668448849 
799	 0.254108294164425 
800	 0.254695242179195 
801	 0.254606117220454 
802	 0.254597588544568 
803	 0.254649757662703 
804	 0.254235712178224 
805	 0.25440857121893 
806	 0.25476678229055 
807	 0.254877306661813 
808	 0.254500963554485 
809	 0.255174939828496 
810	 0.256013431615729 
811	 0.256034554283259 
812	 0.256232259701945 
813	 0.255967710508944 
814	 0.255612149367608 
815	 0.25589299509145 
816	 0.255762297429285 
817	 0.255820417679239 
818	 0.25612414714068 
819	 0.256321162167136 
820	 0.257109213154133 
821	 0.256936733583955 
822	 0.255563115931636 
823	 0.254795980164366 
824	 0.255630440467498 
825	 0.256216561982685 
826	 0.255691008425151 
827	 0.256444996638751 
828	 0.256793513559109 
829	 0.256497106715791 
830	 0.256014966645978 
831	 0.256273737475174 
832	 0.256066215005637 
833	 0.255592078162832 
834	 0.255788931110128 
835	 0.256629559868327 
836	 0.257342436528653 
837	 0.257314409282478 
838	 0.256315091888167 
839	 0.256563627854704 
840	 0.256928266581674 
841	 0.256703285478697 
842	 0.256772877109152 
843	 0.257085269887218 
844	 0.256971661235849 
845	 0.256322396947455 
846	 0.25713984070759 
847	 0.256876912132633 
848	 0.256121171973255 
849	 0.256335543180144 
850	 0.256649123427563 
851	 0.25665166162033 
852	 0.256548229049247 
853	 0.256805440095375 
854	 0.256450053351977 
855	 0.256079236813611 
856	 0.256093191209762 
857	 0.256442379340199 
858	 0.256232987279323 
859	 0.25629425537614 
860	 0.25682501793104 
861	 0.256729286686618 
862	 0.257181030922739 
863	 0.257686629753276 
864	 0.257628753302616 
865	 0.257012171956406 
866	 0.25677037234714 
867	 0.257115192786778 
868	 0.257770833066989 
869	 0.257940167079287 
870	 0.258240449367323 
871	 0.25810419235062 
872	 0.256987472570183 
873	 0.257123292499147 
874	 0.257529625177079 
875	 0.25778124285398 
876	 0.257905371698649 
877	 0.257491775342758 
878	 0.257562650811948 
879	 0.257974773171462 
880	 0.257514521296663 
881	 0.257202117393227 
882	 0.257119391423147 
883	 0.257423506886186 
884	 0.258428798362663 
885	 0.2585453764205 
886	 0.25849713316856 
887	 0.258893292541752 
888	 0.259307488129668 
889	 0.258511457145701 
890	 0.258297180710012 
891	 0.259912874657448 
892	 0.261239309138843 
893	 0.262252547774178 
894	 0.261793382881114 
895	 0.259480236407961 
896	 0.25951158065729 
897	 0.260059738061152 
898	 0.25958194230324 
899	 0.257675039769919 
900	 0.257797210940419 
901	 0.257157421418639 
902	 0.256996390435784 
903	 0.259050498196773 
904	 0.259296468292855 
905	 0.260363970915294 
906	 0.260909852372186 
907	 0.258594979704816 
908	 0.260850642707337 
909	 0.261530592777771 
910	 0.260033096408039 
911	 0.260790011607469 
912	 0.261452349078568 
913	 0.262923467982998 
914	 0.263097453269391 
915	 0.259104989549235 
916	 0.261876189187148 
917	 0.261139162645239 
918	 0.258346043118713 
919	 0.263450799313829 
920	 0.263424745617641 
921	 0.261543804840077 
922	 0.260149658530573 
923	 0.259270842205486 
924	 0.261612638396671 
925	 0.264002135563524 
926	 0.264793283659466 
927	 0.266145366598327 
928	 0.26891300313648 
929	 0.267860866172929 
930	 0.263072985081133 
931	 0.270930664222167 
932	 0.267473786644622 
933	 0.264672396384623 
934	 0.269371488787258 
935	 0.25343181996562 
936	 0.258048823851357 
937	 0.273894826462953 
938	 0.282773074689241 
939	 0.275201947943036 
940	 0.280175330116158 
941	 0.279997423653775 
942	 0.271837814520122 
943	 0.274789635654707 
944	 0.267004191451057 
945	 0.268930198618137 
946	 0.283938575411259 
947	 0.283721453789014 
948	 0.27327385499014 
949	 0.273745794890761 
950	 0.280067358067786 
951	 0.265009444652489 
952	 0.269752580425699 
953	 0.272904661315267 
954	 0.268802483188701 
955	 0.273793725228816 
956	 0.281939799483942 
957	 0.284109276307748 
958	 0.277050570495447 
959	 0.265078961866112 
960	 0.268613056271688 
961	 0.268005535999972 
962	 0.264573401412415 
963	 0.27158147948284 
964	 0.269521562805608 
965	 0.273310739502789 
966	 0.277883665770331 
967	 0.270284616028964 
968	 0.263881290978538 
969	 0.267139886628637 
970	 0.271246192367291 
971	 0.264602973931597 
972	 0.268318658726114 
973	 0.26890806298698 
974	 0.265272310371562 
975	 0.263200433480757 
976	 0.261875802060513 
977	 0.263200666084194 
978	 0.264651766556606 
979	 0.263993429402666 
980	 0.266098980696091 
981	 0.264803707258989 
982	 0.262172270857584 
983	 0.262044511624226 
984	 0.266061357121903 
985	 0.267550555623575 
986	 0.26850240135067 
987	 0.269917394089003 
988	 0.266809534537098 
989	 0.268086430886859 
990	 0.264356216207614 
991	 0.256895462760122 
992	 0.26501386612836 
993	 0.266691458936003 
994	 0.268321277724787 
995	 0.271335863491533 
996	 0.268408805184877 
997	 0.265402417096311 
998	 0.268638810977648 
999	 0.270833842725073 
1000	 0.261055863537038 
1001	 0.253011031647875 
1002	 0.252230165379832 
1003	 0.251489059271972 
1004	 0.249913697090579 
1005	 0.248877655150932 
1006	 0.247873160615259 
1007	 0.244434183344092 
1008	 0.244082045355658 
1009	 0.246147877776638 
1010	 0.247236119559726 
1011	 0.250002024168636 
1012	 0.25323297409501 
1013	 0.252816729620635 
1014	 0.25095358233537 
1015	 0.24822064991929 
1016	 0.247003418703705 
1017	 0.246824381562919 
1018	 0.248968379583202 
1019	 0.249891791204629 
1020	 0.250356866631585 
1021	 0.251529877179993 
1022	 0.253745675825337 
1023	 0.254135267957084 
1024	 0.254357872707008 
1025	 0.25399473039187 
1026	 0.251678223955254 
1027	 0.253882645903898 
1028	 0.255641764365693 
1029	 0.255804722916156 
1030	 0.25506494575064 
1031	 0.252956648264303 
1032	 0.252905510958695 
1033	 0.254088348933288 
1034	 0.25394332270232 
1035	 0.255616700444079 
1036	 0.25465417069972 
1037	 0.250429720102654 
1038	 0.247703277187637 
1039	 0.248740497525508 
1040	 0.251062870623799 
1041	 0.256454774424217 
1042	 0.260637980783634 
1043	 0.262057644661008 
1044	 0.260817162395174 
1045	 0.257783495644458 
1046	 0.254334105196935 
1047	 0.249785296399631 
1048	 0.247371676170209 
1049	 0.246654355143666 
1050	 0.247790681442207 
1051	 0.249177203876539 
1052	 0.253810117629535 
1053	 0.255110253201929 
1054	 0.253571758920131 
1055	 0.252390896201523 
1056	 0.249983764011455 
1057	 0.248558451362661 
1058	 0.247480102296214 
1059	 0.247298571696802 
1060	 0.247060123739488 
1061	 0.245900637841949 
1062	 0.247872422536673 
1063	 0.249988650165138 
1064	 0.251091549749936 
1065	 0.251693458130813 
1066	 0.253755792903519 
1067	 0.255107559128532 
1068	 0.255062838614594 
1069	 0.255773778509512 
1070	 0.255698601007126 
1071	 0.256375030891144 
1072	 0.258492508740458 
1073	 0.259961801814361 
1074	 0.262602450515908 
1075	 0.263160997642689 
1076	 0.261510115873045 
1077	 0.26079658882001 
1078	 0.257862301643071 
1079	 0.255457953439621 
1080	 0.25207042695105 
1081	 0.251093211368466 
1082	 0.250861718284207 
1083	 0.251563554008471 
1084	 0.254256828878724 
1085	 0.254873963797799 
1086	 0.25385947585993 
1087	 0.256006469839029 
1088	 0.258225155371705 
1089	 0.258885698261287 
1090	 0.25545518019257 
1091	 0.250636149916344 
1092	 0.248453136045643 
1093	 0.247094053966269 
1094	 0.251561091439538 
1095	 0.254266768460783 
1096	 0.259505585115068 
1097	 0.258200904889883 
1098	 0.259079724695933 
1099	 0.258414448635374 
1100	 0.256704209356333 
1101	 0.261476160083255 
1102	 0.262089550755782 
1103	 0.261255418748398 
1104	 0.262855628770928 
1105	 0.261328286997501 
1106	 0.261233480529138 
1107	 0.261454625701419 
1108	 0.262490928506681 
1109	 0.261550838022268 
1110	 0.259300361992514 
1111	 0.253381070140103 
1112	 0.252743581362179 
1113	 0.253585688387044 
1114	 0.254514419356886 
1115	 0.256530367626945 
1116	 0.257061044954558 
1117	 0.258946404008822 
1118	 0.260997581842093 
1119	 0.273887567189346 
1120	 0.305830750383622 
1121	 0.309393717926396 
1122	 0.272988725036662 
1123	 0.2806663136456 
1124	 0.276937865996549 
1125	 0.221166879977442 
1126	 0.208637517436981 
1127	 0.18886118459114 
1128	 0.150419497883918 
1129	 0.139425476277524 
1130	 0.157524501651245 
1131	 0.125296370238181 
1132	 0.161439848489032 
1133	 0.172907158494336 
1134	 0.15887732533874 
1135	 0.207417589110785 
1136	 0.234340036126958 
1137	 0.237003701925809 
1138	 0.260609333397108 
1139	 0.277014063371323 
1140	 0.284958472899354 
1141	 0.279446459616441 
1142	 0.289879850645305 
1143	 0.32351230315579 
1144	 0.33044922612961 
1145	 0.340291245720293 
1146	 0.322984334547244 
1147	 0.269885889768441 
1148	 0.22015066834173 
1149	 0.183562921189233 
1150	 0.194917733231505 
1151	 0.216182418337652 
1152	 0.210688627503821 
1153	 0.221927270982827 
1154	 0.217697809759067 
1155	 0.221372171505928 
1156	 0.235795685162401 
1157	 0.236432926496219 
1158	 0.244542535070036 
1159	 0.24782129139747 
1160	 0.244205193452603 
1161	 0.248673244840769 
1162	 0.261237897553976 
1163	 0.260745797455953 
1164	 0.25578016937092 
1165	 0.259219684317445 
1166	 0.252257050195808 
1167	 0.244253672183395 
1168	 0.247327054313418 
1169	 0.248647659798031 
1170	 0.252630237336122 
1171	 0.259092425207312 
1172	 0.261377087131594 
1173	 0.262625558440596 
1174	 0.262947085849464 
1175	 0.262329565605562 
1176	 0.26313689503217 
1177	 0.265712394307401 
1178	 0.266097953979494 
1179	 0.267542880784311 
1180	 0.266056067617448 
1181	 0.260049171172831 
1182	 0.256767944619824 
1183	 0.252394972867498 
1184	 0.250488412283257 
1185	 0.250053137244598 
1186	 0.251524928911645 
1187	 0.254582696965824 
1188	 0.254091656593967 
1189	 0.252088337957152 
1190	 0.253007300127047 
1191	 0.252727861720354 
1192	 0.252850565827079 
1193	 0.253660684925442 
1194	 0.255065046092241 
1195	 0.257316569826634 
1196	 0.261240012694937 
1197	 0.262690315494618 
1198	 0.265342393676227 
1199	 0.265491595642077 
1200	 0.262470833710229 
1201	 0.259949592490619 
1202	 0.256623941480887 
1203	 0.252318494339565 
1204	 0.249795431584118 
1205	 0.251102806947022 
1206	 0.253879643495332 
1207	 0.257252603553308 
1208	 0.260117384248228 
1209	 0.261182419323343 
1210	 0.261734496370054 
1211	 0.261427277901661 
1212	 0.261021905449433 
1213	 0.259827598933971 
1214	 0.258314767342093 
1215	 0.255466628504326 
1216	 0.254683719883449 
1217	 0.254381893735664 
1218	 0.254644318528705 
1219	 0.256466350199962 
1220	 0.25791468935877 
1221	 0.259538232261385 
1222	 0.260659436000598 
1223	 0.262174618983393 
1224	 0.262652172492103 
1225	 0.260729330036653 
1226	 0.25950110322868 
1227	 0.260916880107595 
1228	 0.260978017510275 
1229	 0.260456120523443 
1230	 0.261268188359817 
1231	 0.260179212190439 
1232	 0.255249920754351 
1233	 0.254819381464031 
1234	 0.256983645218144 
1235	 0.25767863957217 
1236	 0.26031198068768 
1237	 0.260692500139927 
1238	 0.258258641282749 
1239	 0.257461480455426 
1240	 0.25605246765927 
1241	 0.256172949750773 
1242	 0.258190146846236 
1243	 0.260175395590487 
1244	 0.259897007573811 
1245	 0.259949224533639 
1246	 0.259333223585062 
1247	 0.256412981690366 
1248	 0.256584063572241 
1249	 0.259319906754908 
1250	 0.259674729664423 
1251	 0.260902062178815 
1252	 0.260587548914386 
1253	 0.257783803219446 
1254	 0.255931110777172 
1255	 0.252918439809295 
1256	 0.252026239255693 
1257	 0.252614882499683 
1258	 0.252787871766009 
1259	 0.254196870699279 
1260	 0.25536235950178 
1261	 0.256294255289311 
1262	 0.257124841882987 
1263	 0.259435802315684 
1264	 0.25951256611335 
1265	 0.257766878582523 
1266	 0.25849623154748 
1267	 0.257804309172584 
1268	 0.256908533965503 
1269	 0.257324041635503 
1270	 0.259173434964469 
1271	 0.258472219381396 
1272	 0.256609156243802 
1273	 0.256932452862652 
1274	 0.258070514884162 
1275	 0.256812332623958 
1276	 0.255439728818315 
1277	 0.255188702365225 
1278	 0.252464362724843 
1279	 0.25144502039512 
1280	 0.25361015029759 
1281	 0.254324979763546 
1282	 0.25351245340015 
1283	 0.254075878342539 
1284	 0.256179282940955 
1285	 0.257210245607362 
1286	 0.257073979398752 
1287	 0.257450071097443 
1288	 0.258207082235114 
1289	 0.25800292320404 
1290	 0.257582091642449 
1291	 0.257559505116859 
1292	 0.257159747447811 
1293	 0.254961451400915 
1294	 0.254846233359244 
1295	 0.256261597898601 
1296	 0.257007324214315 
1297	 0.259333760726287 
1298	 0.259041777789648 
1299	 0.256007176857436 
1300	 0.255752730940511 
1301	 0.25482807048488 
1302	 0.255070849277762 
1303	 0.259364681066988 
1304	 0.260942587566539 
1305	 0.262040262225233 
1306	 0.261518169653539 
1307	 0.259860940808773 
1308	 0.255009220835576 
1309	 0.251344486535263 
1310	 0.24946166534386 
1311	 0.249195518642582 
1312	 0.251090170371866 
1313	 0.249870544719765 
1314	 0.245711953007419 
1315	 0.246299801371196 
1316	 0.247367154825268 
1317	 0.250247894519938 
1318	 0.260007623657176 
1319	 0.263574783684932 
1320	 0.263222612406372 
1321	 0.265210593691422 
1322	 0.266836370512137 
1323	 0.267424944100014 
1324	 0.27028090356791 
1325	 0.269682879456677 
1326	 0.262303631235254 
1327	 0.258652675115257 
1328	 0.254419931391553 
1329	 0.250580135300984 
1330	 0.245562344872041 
1331	 0.247761269194534 
1332	 0.25837459458132 
1333	 0.268663442913151 
1334	 0.283748406763352 
1335	 0.297808095788789 
1336	 0.295744470276329 
1337	 0.275587260134524 
1338	 0.264583029833439 
1339	 0.245226930623997 
1340	 0.230418742649602 
1341	 0.213999253734923 
1342	 0.203834769487325 
1343	 0.190638566949164 
1344	 0.186958965546968 
1345	 0.210490683993508 
1346	 0.218194267916212 
1347	 0.236536206894968 
1348	 0.231608507206479 
1349	 0.168216020545702 
1350	 0.103810955968709 
1351	 6.52538148909563E-03 
1352	-0.140762933689314 
1353	-0.333109475776141 
1354	-0.648421979184666 
1355	-1.45161271737843 
1356	-2.39187853689592 
1357	-2.27494227928034 
1358	-4.12543265269065 
1359	-37.2711093417217 
1360	 2.80237834960678 
1361	 0.93754243456099 
1362	 1.02786608106142 
1363	 0.775019140804592 
1364	 0.374495940810172 
1365	 0.246103118564029 
1366	 0.162480378878093 
1367	 8.83685307536723E-02 
1368	 0.147230307912663 
1369	 0.200214011472137 
1370	 0.272686438689453 
1371	 0.282851586207779 
1372	 0.267814330691418 
1373	 0.426734883806908 
1374	 4.48126437365091 
1375	-1.38475256109425 
1376	-2.73865636456713 
1377	-8.91866240092297 
1378	 1.53796042098061 
1379	 1.05553231274963 
1380	 0.564826795729752 
1381	 0.454430108520192 
1382	 0.775949785328826 
1383	 0.923480914567059 
1384	 0.172355601271762 
1385	 0.296083200742013 
1386	 3.09514334235745 
1387	 1.6587402270688 
1388	-4.44831905895447 
1389	-2.1055395218589 
1390	-1.79122806727532 
1391	 0.837890887946156 
1392	-1.82199357698731 
1393	 0.069874492971675 
1394	 0.150721442520453 
1395	 0.389012235195255 
1396	 0.46512183453649 
1397	 0.495927580454107 
1398	 0.750440940494041 
1399	-0.146549548556643 
1400	-0.391388093124947 
1401	-1.47535059730837 
1402	-22.1626950588043 
1403	 1.00045053114853 
1404	 0.777885763310829 
1405	 0.407816946700627 
1406	 0.344231738756053 
1407	 0.537019657907238 
1408	 0.697502101998798 
1409	 1.17192812333419 
1410	 1.13266207986861 
1411	 0.242329450979979 
1412	 0.147841586335299 
1413	 9.36239889972635E-02 
1414	 5.71742455445604E-02 
1415	 0.481771395124791 
1416	 0.74415787667088 
1417	 1.18805833998496 
1418	 1.37088078050963 
1419	 1.19400297661592 
1420	 0.837361009360695 
1421	 0.680601701207512 
1422	 0.129218086142425 
1423	 0.217843346417023 
1424	-1.98442788200344 
1425	-1.80915984170081 
1426	-79.6709682860833 
1427	-6.34290353258713 
1428	 5.66694831117097E-02 
1429	-1.07081019080666 
1430	 0.117835385356352 
1431	 0.202539332381689 
1432	 0.364112111177265 
1433	 0.333244980939968 
1434	 0.336669283444088 
1435	 0.288755944660229 
1436	-0.525693358947664 
1437	-0.866805573739169 
1438	-0.454481010581915 
1439	-0.310721215016867 
1440	-8.45807046699875E-02 
1441	 6.00858972951202E-03 
1442	 0.253027632501235 
1443	 0.456353428623743 
1444	 0.522864911692527 
1445	 0.641572669187337 
1446	 0.662705647107817 
1447	 0.759882802174063 
1448	 1.42545660522051 
1449	 1.24577969639021 
1450	 0.846813361287648 
1451	 0.781229104385415 
1452	 0.810906571361524 
1453	 0.708421196315561 
1454	 0.616837781750867 
1455	 0.495633286025799 
1456	 0.372319627284016 
1457	 0.232106305173155 
1458	 0.157552960535027 
1459	 8.38840464315115E-02 
1460	 7.98845894313537E-02 
1461	 0.094387588218587 
1462	 0.13266235440571 
1463	 0.254726949568929 
1464	 0.274639697159172 
1465	 0.273751431749076 
1466	 0.255691572890166 
1467	 9.70140351841964E-02 
1468	 2.92140620415378E-02 
1469	-5.32893599282806E-03 
1470	 0.043076193240993 
1471	 0.178942521542938 
1472	 0.281669820816888 
1473	 0.51408182780571 
1474	 0.562480081523604 
1475	 0.499218266319449 
1476	 0.475595543655788 
1477	 0.390682341319792 
1478	 0.372324658934241 
1479	 0.402294022577164 
1480	 0.388127616584179 
1481	 0.374049066948377 
1482	 0.35449891900293 
1483	 0.335227151847179 
1484	 0.298642972591719 
1485	 0.239795591987393 
1486	 0.221245014541502 
1487	 0.198196317456332 
1488	 0.202724820885587 
1489	 0.240103996253151 
1490	 0.254454917085556 
1491	 0.263782352885131 
1492	 0.272896822986944 
1493	 0.286753931634178 
1494	 0.285695615356301 
1495	 0.278080061091078 
1496	 0.272863487193451 
1497	 0.255357505569793 
1498	 0.248137914026138 
1499	 0.245614209687168 
1500	 0.248395828604721 
1501	 0.255697642740312 
1502	 0.257483763207785 
1503	 0.253788629852989 
1504	 0.255731806371819 
1505	 0.257347072282191 
1506	 0.25549900595401 
1507	 0.261495184692827 
1508	 0.275304112515893 
1509	 0.27651679266461 
1510	 0.275335416345265 
1511	 0.275118304433551 
1512	 0.270249001122358 
1513	 0.267649057431438 
1514	 0.266867122948266 
1515	 0.266255272592763 
1516	 0.263020773368553 
1517	 0.26376811239852 
1518	 0.267863103057353 
1519	 0.272426271094064 
1520	 0.280537507197591 
1521	 0.281188480113885 
1522	 0.280880283945353 
1523	 0.277896321064986 
1524	 0.264862624196124 
1525	 0.264796610504536 
1526	 0.27200301868482 
1527	 0.273896823592555 
1528	 0.281472655653562 
1529	 0.282029868849734 
1530	 0.27404943961654 
1531	 0.272191893820394 
1532	 0.271667016230464 
1533	 0.270318912198842 
1534	 0.270463540502554 
1535	 0.269830401255798 
1536	 0.267508592744393 
1537	 0.267178896528049 
1538	 0.268776044712543 
1539	 0.268730569220105 
1540	 0.269201773595863 
1541	 0.268221567267907 
1542	 0.264617587101689 
1543	 0.262841273088189 
1544	 0.261144247425119 
1545	 0.260668342767125 
1546	 0.261115579277296 
1547	 0.262581415791559 
1548	 0.265524925155733 
1549	 0.267372747651796 
1550	 0.270645803519795 
1551	 0.271889762075922 
1552	 0.271308559144748 
1553	 0.271154307623159 
1554	 0.26922432654533 
1555	 0.268882414986783 
1556	 0.269606026744147 
1557	 0.269994583237525 
1558	 0.271411255776198 
1559	 0.27260282133664 
1560	 0.273942024091474 
1561	 0.274923595645891 
1562	 0.278477424140645 
1563	 0.275845832867416 
1564	 0.272616250783038 
1565	 0.270749293917805 
1566	 0.269795974884782 
1567	 0.270199191178921 
1568	 0.269340864388471 
1569	 0.267183987718857 
1570	 0.263223831506468 
1571	 0.259495876599247 
1572	 0.260324760402001 
1573	 0.262678179101745 
1574	 0.26465223709818 
1575	 0.267139501517011 
1576	 0.269039606211815 
1577	 0.267561047174343 
1578	 0.266510512306792 
1579	 0.265511264848279 
1580	 0.261857713069933 
1581	 0.261102791008012 
1582	 0.261987700788807 
1583	 0.262796218896046 
1584	 0.267076180113775 
1585	 0.270770202499277 
1586	 0.273656391639511 
1587	 0.277366002794654 
1588	 0.277849563326092 
1589	 0.276324350405942 
1590	 0.275031871360279 
1591	 0.270839649871817 
1592	 0.270024784507388 
1593	 0.270978523587475 
1594	 0.27062960726878 
1595	 0.271210537609748 
1596	 0.272025999564765 
1597	 0.272351103091024 
1598	 0.271445396675716 
1599	 0.269472442212046 
1600	 0.270538649152623 
1601	 0.272823136217828 
1602	 0.273599222037751 
1603	 0.276760680379386 
1604	 0.277913220805525 
1605	 0.275375181096497 
1606	 0.274235224946697 
1607	 0.273939857170708 
1608	 0.274863406548913 
1609	 0.277211662421935 
1610	 0.274961415854639 
1611	 0.271921494257298 
1612	 0.270781373312356 
1613	 0.265124419025198 
1614	 0.263709347795765 
1615	 0.267694672518273 
1616	 0.267376822038368 
1617	 0.265776137067983 
1618	 0.264278335223848 
1619	 0.261215980276174 
1620	 0.2611044494868 
1621	 0.26117944117814 
1622	 0.262703510979263 
1623	 0.267548365161998 
1624	 0.27042427549511 
1625	 0.272918618982882 
1626	 0.273973097710593 
1627	 0.274508904537359 
1628	 0.274843945379889 
1629	 0.273541898087638 
1630	 0.273580342480748 
1631	 0.274648106540966 
1632	 0.273917244041528 
1633	 0.272950382782486 
1634	 0.272707341940827 
1635	 0.270785258130104 
1636	 0.271289299856536 
1637	 0.273748182862583 
1638	 0.27423940118985 
1639	 0.27588768143559 
1640	 0.275354013678016 
1641	 0.270910351867955 
1642	 0.27229320820874 
1643	 0.276857261721944 
1644	 0.277566791470922 
1645	 0.280293615430365 
1646	 0.280171440788029 
1647	 0.274716693246249 
1648	 0.273632950935636 
1649	 0.274464677381541 
1650	 0.275725465520569 
1651	 0.279158674250109 
1652	 0.278810531199797 
1653	 0.278085237665842 
1654	 0.276312119057421 
1655	 0.270641098546697 
1656	 0.268258337760773 
1657	 0.266770654893387 
1658	 0.266246122961883 
1659	 0.267285288042385 
1660	 0.266535955364205 
1661	 0.265788101239881 
1662	 0.264227777277862 
1663	 0.264802770921011 
1664	 0.270049071420686 
1665	 0.274372003099518 
1666	 0.277753411674583 
1667	 0.281358746409944 
1668	 0.279150866021181 
1669	 0.272802583068855 
1670	 0.267059871630545 
1671	 0.263877449308915 
1672	 0.259808152526297 
1673	 0.259230347151788 
1674	 0.265028855178296 
1675	 0.266561066894212 
1676	 0.270085813678957 
1677	 0.275484209635683 
1678	 0.276325028480031 
1679	 0.277831387569221 
1680	 0.276015334755599 
1681	 0.276288770872199 
1682	 0.277959591256385 
1683	 0.278227103342322 
1684	 0.281110317849953 
1685	 0.28128601012046 
1686	 0.27966293732259 
1687	 0.274703951227242 
1688	 0.273236636143889 
1689	 0.278111572038995 
1690	 0.282057443365647 
1691	 0.283943309261022 
1692	 0.283258749095381 
1693	 0.281772207185167 
1694	 0.278214987560529 
1695	 0.281393278609439 
1696	 0.292260897038034 
1697	 0.292248568672761 
1698	 0.287324834707404 
1699	 0.284323392145061 
1700	 0.27530068589644 
1701	 0.274128256736232 
1702	 0.280342669388193 
1703	 0.2795811225135 
1704	 0.275587865194778 
1705	 0.270797688640382 
1706	 0.266163738984455 
1707	 0.263392635680843 
1708	 0.262025863926975 
1709	 0.26072911384357 
1710	 0.258829151567208 
1711	 0.26159596632559 
1712	 0.269907004095847 
1713	 0.273565603197133 
1714	 0.275194491103109 
1715	 0.276497400976724 
1716	 0.273956730324547 
1717	 0.27028197927813 
1718	 0.267926631494278 
1719	 0.269548336557323 
1720	 0.275854889479048 
1721	 0.278021595739236 
1722	 0.276928020673292 
1723	 0.277944418805996 
1724	 0.277601500221055 
1725	 0.27252996948852 
1726	 0.266134709867135 
1727	 0.260584616525526 
1728	 0.252142622985633 
1729	 0.249527976806586 
1730	 0.251866905792853 
1731	 0.25320987631822 
1732	 0.255486478688997 
1733	 0.253075896873989 
1734	 0.250525304155468 
1735	 0.254118636356872 
1736	 0.255124851067632 
1737	 0.255764032742878 
1738	 0.259353091712255 
1739	 0.261071227535211 
1740	 0.267098170060291 
1741	 0.276554715679118 
1742	 0.285489585294702 
1743	 0.283243901088112 
1744	 0.28445809640972 
1745	 0.290022685206611 
1746	 0.289104763148819 
1747	 0.292483984955922 
1748	 0.293091369851335 
1749	 0.281032462959944 
1750	 0.274638284529571 
1751	 0.268356270209478 
1752	 0.256869401379567 
1753	 0.254822383857392 
1754	 0.251935664542955 
1755	 0.248491513441062 
1756	 0.25924016391469 
1757	 0.275528329944255 
1758	 0.28105794168414 
1759	 0.288608247900908 
1760	 0.282712859716428 
1761	 0.253116073455519 
1762	 0.248889231527123 
1763	 0.254843850312343 
1764	 0.265897241215058 
1765	 0.292043897268568 
1766	 0.297122927155038 
1767	 0.293482733009015 
1768	 0.282080423803255 
1769	 0.279176641306425 
1770	 0.289344342511817 
1771	 0.29378411817142 
1772	 0.309049600374542 
1773	 0.307240897663111 
1774	 0.309829864068253 
1775	 0.30792268362333 
1776	 0.276267686101822 
1777	 0.283828722687052 
1778	 0.289384572259647 
1779	 0.324943642650321 
1780	 0.327281365638427 
1781	 0.294474496056671 
1782	 0.232393472857286 
1783	 0.221962539493561 
1784	 0.233295071862734 
1785	 0.236760119872903 
1786	 0.289020390854256 
1787	 0.335804881975662 
1788	 0.425793860161723 
1789	 0.459981585685834 
1790	 0.403362603480338 
1791	 0.295853691195314 
1792	 0.164229548334897 
1793	 0.110877871783012 
1794	 7.01360844768351E-02 
1795	 7.81892050871238E-02 
1796	 5.44783136722261E-02 
1797	-3.46550858369782E-02 
1798	-5.30346220011158E-02 
1799	 0.231818788431201 
1800	 0.377134489305651 
1801	 0.840521287724279 
1802	 0.816564115820375 
1803	 0.799988864940153 
1804	 0.775383595688876 
1805	 0.677988956715603 
1806	 0.608866606357278 
1807	 0.65100396515111 
1808	 0.847588298861498 
1809	 0.860956473373235 
1810	 0.882654002901052 
1811	 0.875148953898186 
1812	 0.644920711528373 
1813	 0.597723852273594 
1814	 0.752368717321182 
1815	 0.767758605970379 
1816	 0.722855011555988 
1817	 0.764578307381572 
1818	 0.689867393118606 
1819	 0.461734434068967 
1820	 0.328708001086094 
1821	 0.171668018389851 
1822	 0.111477118980776 
1823	 4.04264847597111E-02 
1824	 9.09763261586678E-02 
1825	 0.265812845048974 
1826	 0.447652455093695 
1827	 0.533687245683043 
1828	 0.679435059686248 
1829	 0.710380657565894 
1830	 0.500779467241566 
1831	 0.564574635097629 
1832	 0.845932190959933 
1833	 0.870331463778859 
1834	 0.92378619483555 
1835	 0.921626702248552 
1836	 0.842696248767037 
1837	 0.493284301534554 
1838	 0.449523630205316 
1839	 0.464810851118021 
1840	 0.561902575547491 
1841	 0.957422554471235 
1842	 1.16100867408746 
1843	 1.44788628956044 
1844	 1.64652889689965 
1845	 1.9625092540895 
1846	 1.58943551319583 
1847	 1.57846446665544 
1848	 1.52421797064418 
1849	 1.39208542804792 
1850	 1.22664841596751 
1851	 1.14808722919378 
1852	 1.00706265021166 
1853	 0.962145489310798 
1854	 0.939139969667426 
1855	 1.00672517743594 
1856	 1.13689998426278 
1857	 1.4973754276964 
1858	 1.44922324032461 
1859	 1.27544841607801 
1860	 1.21373320673713 
1861	 0.869812805034535 
1862	 0.810079166694956 
1863	 0.995915517121537 
1864	 1.11232260862873 
1865	 1.28860275300953 
1866	 1.35391119174078 
1867	 1.39153791412256 
1868	 1.44962706682003 
1869	 1.47660464645859 
1870	 1.42240524915948 
1871	 1.35823644837547 
1872	 1.29568977331415 
1873	 1.24545967043245 
1874	 1.08818089478124 
1875	 1.04232472818569 
1876	 1.0969520056933 
1877	 1.16826659484727 
1878	 1.12769151391666 
1879	 1.06269409149992 
1880	 1.02497712611383 
1881	 0.855127075360349 
1882	 0.78912710485252 
1883	 0.816765842920863 
1884	 0.835330612539984 
1885	 0.877072362059529 
1886	 0.93329324098323 
1887	 1.08758068572207 
1888	 1.11975231242894 
1889	 1.21707140560744 
1890	 1.40492367484887 
1891	 1.41238901129125 
1892	 1.40757193939379 
1893	 1.25219051394383 
1894	 0.85372165207526 
1895	 0.709185226483335 
1896	 0.563518102869126 
1897	 0.536042293280203 
1898	 0.619177881622199 
1899	 0.69455222759391 
1900	 0.770382580145402 
1901	 0.897339308287247 
1902	 0.954281830272998 
1903	 1.02992419361407 
1904	 1.07578701166056 
1905	 1.01004743911179 
1906	 1.03743147381218 
1907	 1.0629686048038 
1908	 1.15399874896334 
1909	 1.35860941037186 
1910	 1.96444864149908 
1911	 2.35395834597396 
1912	 3.62901058701313 
1913	 2.88940326772721 
1914	 1.32613399744379 
1915	 1.14542656550118 
1916	 1.09349536845211 
1917	 0.969164142138427 
1918	 0.90407374478725 
1919	 0.945570875207158 
1920	 0.815184500882257 
1921	 0.69033255210787 
1922	 0.697655094354045 
1923	 0.859415023628714 
1924	 0.995936079483558 
1925	 1.35955006047179 
1926	 1.63874099867114 
1927	 1.91627006480227 
1928	 2.09835990207389 
1929	 2.33750261069057 
1930	 1.77878640042349 
1931	 1.29945067291782 
1932	 1.15019179668273 
1933	 0.831879702900728 
1934	 0.671883596984048 
1935	 0.609679251394527 
1936	 0.702919454022196 
1937	 0.744517695495965 
1938	 0.759236213750674 
1939	 0.830102653122348 
1940	 1.08177572827259 
1941	 1.04163545306368 
1942	 1.01501813521533 
1943	 1.17847649013765 
1944	 1.04484718623649 
1945	 1.01525461691056 
1946	 1.04594055280433 
1947	 1.259735376086 
1948	 1.30738918288358 
1949	 1.35298307640372 
1950	 1.25791180610825 
1951	 1.09573733227839 
1952	 0.931593583227043 
1953	 0.637275097833982 
1954	 0.62196261929214 
1955	 0.697349258147539 
1956	 0.617089022197836 
1957	 0.805825083881708 
1958	 1.07009824564478 
1959	 1.09764572428995 
1960	 0.900531468556454 
1961	 0.829343079120131 
1962	 0.689300094915998 
1963	 0.614695626221879 
1964	 0.527554749208512 
1965	 0.451584549917998 
1966	 0.427787870853886 
1967	 0.505375329787947 
1968	 0.583260775046923 
1969	 0.582466135498523 
1970	 0.643689001247213 
1971	 0.731459032660685 
1972	 0.775863886455477 
1973	 0.875816917344311 
1974	 0.92790457643879 
1975	 0.939589577342723 
1976	 0.926614178833939 
1977	 0.89167925355701 
1978	 0.803252924863309 
1979	 0.762235474731545 
1980	 0.621886905715519 
1981	 0.451684408881025 
1982	 0.412521701850622 
1983	 0.371142116666882 
1984	 0.341673596622878 
1985	 0.356146930553006 
1986	 0.442460202397556 
1987	 0.463944334847499 
1988	 0.471721138965685 
1989	 0.494902508269307 
1990	 0.56312697443136 
1991	 0.565958701666214 
1992	 0.502715990115482 
1993	 0.577635702613743 
1994	 0.645336046166204 
1995	 0.592936250786914 
1996	 0.598412529572916 
1997	 0.636250977072934 
1998	 0.700814310334076 
1999	 0.76766013723027 
2000	 0.89833828650401 
2001	 1.34235518788044 
2002	 1.66759880583396 
2003	 1.62395543250776 
2004	 1.601363699069 
2005	 1.1091706286035 
2006	 0.885262877765268 
2007	 1.06970434001448 
2008	 1.13734375057297 
2009	 1.19318827936234 
2010	 1.48199422304555 
2011	 1.43994798311779 
2012	 1.18536448777809 
2013	 1.07350444449597 
2014	 0.898903079255702 
2015	 0.860432415935432 
2016	 0.93072289668414 
2017	 0.90360822611971 
2018	 0.888419074036925 
2019	 0.78062731105121 
2020	 0.693855992853433 
2021	 0.657825586415265 
2022	 0.620602322478459 
2023	 0.705797881789176 
2024	 0.663979930914139 
2025	 0.536726547528894 
2026	 0.48698084346579 
2027	 0.43641026016157 
2028	 0.382972388003096 
2029	 0.395555728072978 
2030	 0.483306653308358 
2031	 0.561708956231588 
2032	 0.598886106704546 
2033	 0.62957860673148 
2034	 0.645730044205525 
2035	 0.631164919016158 
2036	 0.660689661611112 
2037	 0.678420573995093 
2038	 0.71024734791933 
2039	 0.674790463698786 
2040	 0.590462179476102 
2041	 0.563996758778527 
2042	 0.508477926768376 
2043	 0.499831803246676 
2044	 0.545445373477354 
2045	 0.533626833403693 
2046	 0.574409466608066 
2047	 0.602531827068233 
2048	 0.641590357091239 
2049	 0.772127660427236 
2050	 0.823202027039353 
2051	 0.804836859982019 
2052	 0.76454385381839 
2053	 0.635189120917103 
2054	 0.580938364849606 
2055	 0.522723926536826 
2056	 0.530851810660911 
2057	 0.604349687087131 
2058	 0.565427310480094 
2059	 0.585819404860867 
2060	 0.62282974342604 
2061	 0.578203205193186 
2062	 0.62496939653386 
2063	 0.593430962756068 
2064	 0.464986481762018 
2065	 0.351809229485675 
2066	 0.268563183308578 
2067	 0.235429760736742 
2068	 0.230730918317833 
2069	 0.236585441596105 
2070	 0.273271769315993 
2071	 0.337393825063588 
2072	 0.373814251585919 
2073	 0.440510635289108 
2074	 0.544223957067716 
2075	 0.609608151459018 
2076	 0.66225809493227 
2077	 0.654065859326149 
2078	 0.591792472099637 
2079	 0.551628839359072 
2080	 0.483057966585787 
2081	 0.457626426445263 
2082	 0.463049055505484 
2083	 0.504023901556079 
2084	 0.526220584811535 
2085	 0.571807062779337 
2086	 0.624708185860276 
2087	 0.64715938465205 
2088	 0.624683966870291 
2089	 0.587225126543041 
2090	 0.537183347433181 
2091	 0.466567564674334 
2092	 0.472762634777441 
2093	 0.468366205723489 
2094	 0.440897606853049 
2095	 0.450870035656764 
2096	 0.407381756472895 
2097	 0.386439607250274 
2098	 0.412822634498946 
2099	 0.419243428411577 
2100	 0.403526141981742 
2101	 0.433607111049579 
2102	 0.496313458350301 
2103	 0.547112293311404 
2104	 0.611068006009831 
2105	 0.672154146176607 
2106	 0.647302876564025 
2107	 0.599080498613976 
2108	 0.565106872820708 
2109	 0.544025334472618 
2110	 0.519951332238048 
2111	 0.510321162179497 
2112	 0.48039771616664 
2113	 0.431283599753312 
2114	 0.4271153841256 
2115	 0.452488048364578 
2116	 0.461020582418341 
2117	 0.504626454103681 
2118	 0.520700917504722 
2119	 0.522605901289728 
2120	 0.498872598474269 
2121	 0.472054748987484 
2122	 0.482061113329425 
2123	 0.476669010820577 
2124	 0.436892941311545 
2125	 0.414192604742788 
2126	 0.370127766991191 
2127	 0.317011045808029 
2128	 0.323227607328586 
2129	 0.331465352079648 
2130	 0.339933642386139 
2131	 0.380527443594517 
2132	 0.394487593434652 
2133	 0.391588212699911 
2134	 0.378149705717161 
2135	 0.374833072141796 
2136	 0.346768578800467 
2137	 0.327346040209916 
2138	 0.365418273236557 
2139	 0.386132736427991 
2140	 0.414104616681355 
2141	 0.483209891436311 
2142	 0.482350411128468 
2143	 0.459621014629462 
2144	 0.441651756584729 
2145	 0.396319214769582 
2146	 0.423514209653159 
2147	 0.454569948907736 
2148	 0.460533488408691 
2149	 0.486452497034801 
2150	 0.487458238922595 
2151	 0.444408306751593 
2152	 0.448851268375197 
2153	 0.471916474046813 
2154	 0.471855156467151 
2155	 0.487409568669062 
2156	 0.467323244128227 
2157	 0.429073105944998 
2158	 0.429966715225454 
2159	 0.400216084349463 
2160	 0.409271298270915 
2161	 0.453917701820234 
2162	 0.465341959481132 
2163	 0.527977269577617 
2164	 0.571639151053043 
2165	 0.535132967719229 
2166	 0.50992134005291 
2167	 0.481636361101637 
2168	 0.466828894479198 
2169	 0.485528459758586 
2170	 0.50729507132232 
2171	 0.518306349313259 
2172	 0.517443105431525 
2173	 0.523908797498309 
2174	 0.537061675593733 
2175	 0.52772230728774 
2176	 0.506585465262854 
2177	 0.498678072571957 
2178	 0.482101580543784 
2179	 0.481045748483054 
2180	 0.495937531503962 
2181	 0.527294015798271 
2182	 0.516335871643361 
2183	 0.493750892892367 
2184	 0.511322670419317 
2185	 0.485011620347889 
2186	 0.453636873305865 
2187	 0.468570695937379 
2188	 0.502209698761972 
2189	 0.501526376877256 
2190	 0.516674077741328 
2191	 0.560871698397462 
2192	 0.55237312106762 
2193	 0.489165495614483 
2194	 0.478557167862511 
2195	 0.429610813465396 
2196	 0.433566289665877 
2197	 0.512887241979283 
2198	 0.517221750636807 
2199	 0.508238705482983 
2200	 0.6037404250343 
2201	 0.58534293500111 
2202	 0.609473247433558 
2203	 0.69677794388994 
2204	 0.666433836729436 
2205	 0.639847595547333 
2206	 0.608545480861347 
2207	 0.532315602948557 
2208	 0.473721291247236 
2209	 0.470790450572947 
2210	 0.523301462711615 
2211	 0.576610849911841 
2212	 0.595990517882757 
2213	 0.593604289597418 
2214	 0.551931445093768 
2215	 0.535594837415679 
2216	 0.546207504738024 
2217	 0.536830828990037 
2218	 0.536091330436092 
2219	 0.495050632634784 
2220	 0.395147761180474 
2221	 0.364956034536256 
2222	 0.349294871065546 
2223	 0.320467716156814 
2224	 0.373133265865176 
2225	 0.425527364129823 
2226	 0.427267937750559 
2227	 0.500371363691301 
2228	 0.580328124254976 
2229	 0.596838047058855 
2230	 0.612035899311133 
2231	 0.561576693661946 
2232	 0.493535049189098 
2233	 0.440463904990655 
2234	 0.380468091643646 
2235	 0.32607290175301 
2236	 0.281420421452338 
2237	 0.254155982893867 
2238	 0.244368865167899 
2239	 0.311906096008403 
2240	 0.344671730561572 
2241	 0.321287033711917 
2242	 0.342770225791506 
2243	 0.361132689682366 
2244	 0.382757207894649 
2245	 0.446769883631426 
2246	 0.479656584663491 
2247	 0.513068487837489 
2248	 0.512695566041723 
2249	 0.462186984823502 
2250	 0.453422629184174 
2251	 0.434296567055715 
2252	 0.430937320175229 
2253	 0.489404175153717 
2254	 0.48973294765705 
2255	 0.476714934307754 
2256	 0.453932681092591 
2257	 0.392484993384804 
2258	 0.387773597768486 
2259	 0.416910355600557 
2260	 0.412850222221612 
2261	 0.38001084728306 
2262	 0.365671356688658 
2263	 0.348230435342389 
2264	 0.28562963578261 
2265	 0.28812566154218 
2266	 0.336472340623646 
2267	 0.348388516474486 
2268	 0.391483339381284 
2269	 0.435608185270721 
2270	 0.431547876981666 
2271	 0.465052045818525 
2272	 0.527843307193568 
2273	 0.56373751967339 
2274	 0.61531354000411 
2275	 0.611589333952036 
2276	 0.518919949125562 
2277	 0.513453263856273 
2278	 0.550288971832932 
2279	 0.534868324285685 
2280	 0.550797491212867 
2281	 0.557601428214311 
2282	 0.492664389892298 
2283	 0.501546669744724 
2284	 0.583378813720136 
2285	 0.608966775888427 
2286	 0.657302861732835 
2287	 0.620163021443239 
2288	 0.530194260471173 
2289	 0.513241331987004 
2290	 0.499416185098204 
2291	 0.504074282977487 
2292	 0.55010452811469 
2293	 0.573821701839218 
2294	 0.581986580256112 
2295	 0.602186758415867 
2296	 0.635353912554794 
2297	 0.65097956777126 
2298	 0.642798676150495 
2299	 0.647283687942217 
2300	 0.641576992409634 
2301	 0.575752459474093 
2302	 0.503441722607214 
2303	 0.534542743552597 
2304	 0.564624273228721 
2305	 0.570619795508414 
2306	 0.633634554875418 
2307	 0.617434750608197 
2308	 0.624413059254983 
2309	 0.64693991304943 
2310	 0.636894757198882 
2311	 0.584907022038202 
2312	 0.58000083029325 
2313	 0.556295368170729 
2314	 0.54708708121706 
2315	 0.658918580317092 
2316	 0.63631656827197 
2317	 0.49377138562175 
2318	 0.45704840426216 
2319	 0.350688578191483 
2320	 0.320452818496312 
2321	 0.397559954818492 
2322	 0.411336378626177 
2323	 0.461573075875963 
2324	 0.484875215069561 
2325	 0.491396280195172 
2326	 0.510717290887372 
2327	 0.486987434658429 
2328	 0.477215264054544 
2329	 0.471538575205956 
2330	 0.481685041999923 
2331	 0.532388780804414 
2332	 0.553464880070757 
2333	 0.563423388858192 
2334	 0.57767984483289 
2335	 0.574563956722161 
2336	 0.569970776758672 
2337	 0.526023828279319 
2338	 0.662212829212385 
2339	 0.755201948636323 
2340	 0.699180400080553 
2341	 0.662618044153384 
2342	 0.538411651698351 
2343	 0.47139549973462 
2344	 0.423306397450766 
2345	 0.362879567712889 
2346	 0.516259852733627 
2347	 0.607391825394418 
2348	 0.560324453834368 
2349	 0.672229271010884 
2350	 0.686035584369667 
2351	 0.62692219810148 
2352	 0.765659577073051 
2353	 0.906761489896018 
2354	 1.2204853156243 
2355	 1.38207531956853 
2356	 1.25814983538431 
2357	 1.17845829868037 
2358	 0.877934312568659 
2359	 0.91289647030568 
2360	 1.10370512918897 
2361	 1.32086804747566 
2362	 1.79368473868093 
2363	 1.70872646476963 
2364	 1.58837636613834 
2365	 1.26866840284937 
2366	 1.12697871219209 
2367	 0.993634445295574 
2368	 0.702257210218204 
2369	 0.675748980900224 
2370	 0.617903508231439 
2371	 0.583533580048875 
2372	 0.57548747642987 
2373	 0.575077036084204 
2374	 0.521760575013781 
2375	 0.627103168845048 
2376	 1.01080486709044 
2377	 1.25447418911548 
2378	 1.5983475901879 
2379	 1.88941380194116 
2380	 1.7736290984684 
2381	 2.0042114420315 
2382	 3.0591057797971 
2383	 4.30256914100626 
2384	 8.00178920230565 
2385	 4.04468731696885 
2386	 1.81000171064052 
2387	 1.28016301644015 
2388	 0.691808708108894 
2389	 0.610722857785321 
2390	 0.695179295213294 
2391	 0.786172927689413 
2392	 0.914738254575955 
2393	 1.18252386249322 
2394	 1.71134164150814 
2395	 2.13337544137201 
2396	 4.15047711324869 
2397	 5.27890040799968 
2398	 3.42957204518317 
2399	 2.89800057053154 
2400	 1.80832926743864 
2401	 1.58175516478231 
2402	 1.79614522000287 
2403	 1.90014904612079 
2404	 2.50576502897823 
2405	 2.46551882221878 
2406	 2.10482530225192 
2407	 1.92369258133831 
2408	 2.02619385195395 
2409	 1.52337098582636 
2410	 0.974650411567918 
2411	 0.818449856263471 
2412	 0.62597186402696 
2413	 0.589865829721819 
2414	 0.683274477084206 
2415	 0.773929913290703 
2416	 1.02272700506149 
2417	 1.02613681299298 
2418	 0.867187010207694 
2419	 0.867999122349477 
2420	 0.72244115500668 
2421	 0.789696637077356 
2422	 1.30657211347469 
2423	 1.61254013086102 
2424	 1.63952796375714 
2425	 1.82481553663834 
2426	 2.01588716595291 
2427	 2.1247949491403 
2428	 2.18344200536242 
2429	 2.29125976568087 
2430	 2.39144979929062 
2431	 2.59026384869411 
2432	 2.75167736259746 
2433	 4.06811153968709 
2434	 77.6205860028626 
2435	-20.8717513742759 
2436	-5.57761734530043 
2437	-15.5566424453165 
2438	 1.06600363281912 
2439	 0.764944098375082 
2440	 0.971331955155483 
2441	 1.01684325216719 
2442	 1.68300095233164 
2443	 1.41538177065227 
2444	 0.907209154978767 
2445	 1.08099591443509 
2446	 1.38984316375826 
2447	 1.81822009636214 
2448	 6.30640901744097 
2449	-68.7293960295243 
2450	-9.21866600580399 
2451	 289.076476460825 
2452	 5.52257921286356 
2453	 1.96744145379653 
2454	 1.90171545281148 
2455	 1.22836047197309 
2456	 1.17374042441517 
2457	 0.9179178846511 
2458	 0.428702604134034 
2459	 0.751724041167566 
2460	 0.855540418361942 
2461	 1.60368845714926 
2462	 1.48459194047327 
2463	 0.678745347068748 
2464	 0.439129253387382 
2465	 0.193832222929706 
2466	 0.146052791212189 
2467	 0.350654509842546 
2468	 0.476995507155663 
2469	 0.865814832439594 
2470	 1.24066065108472 
2471	 1.26604468045548 
2472	 0.977960822678495 
2473	 0.308354613589746 
2474	 0.273342519883251 
2475	 0.362167154453351 
2476	 0.489279606423568 
2477	 0.947364461518714 
2478	 1.08959467546834 
2479	 0.929977261261752 
2480	 1.01982295806936 
2481	 1.21213718415077 
2482	 1.29757200770921 
2483	 1.60811154086769 
2484	 1.88274123724084 
2485	 1.69512291789344 
2486	 1.67469728597045 
2487	 1.85904906694771 
2488	 2.09118774252297 
2489	 2.22696646144062 
2490	 2.60608523189942 
2491	 7.46924405023126 
2492	 3.28859022325101 
2493	 0.804116961701226 
2494	 0.24771847724568 
2495	-9.74185441689945E-02 
2496	-6.38710036572739E-02 
2497	 3.97875419081455E-02 
2498	 0.359761334718573 
2499	 1.05541861099241 
2500	 1.37677286138874 
