Wavelength	000018.asd
350	 3.93764861169391E-02 
351	 4.00674681123129E-02 
352	 4.06489269146932E-02 
353	 4.04548573831054E-02 
354	 3.90876754351964E-02 
355	 3.82516195469718E-02 
356	 3.86172953688526E-02 
357	 3.96546120500749E-02 
358	 4.13452650773346E-02 
359	 4.15391800025476E-02 
360	 0.040503404119033 
361	 0.042270199514277 
362	 4.23415958988341E-02 
363	 4.21090172009774E-02 
364	 4.29132683239236E-02 
365	 4.25232424539235E-02 
366	 4.18132215727524E-02 
367	 0.041695560501498 
368	 4.26802637322158E-02 
369	 4.35835701306246E-02 
370	 4.36995199708399E-02 
371	 4.33609882297845E-02 
372	 4.34840584352904E-02 
373	 4.33311149136101E-02 
374	 4.26218293768699E-02 
375	 0.042054164598014 
376	 4.33400633520512E-02 
377	 4.34740603274779E-02 
378	 4.33014169615288E-02 
379	 4.38050991543233E-02 
380	 4.42595301160778E-02 
381	 4.40034443979792E-02 
382	 4.37301655755448E-02 
383	 4.41205064267013E-02 
384	 4.32913213706508E-02 
385	 4.25690939551251E-02 
386	 4.29282217590534E-02 
387	 4.45417887899223E-02 
388	 4.40814347961795E-02 
389	 4.37631996956518E-02 
390	 4.43572999172027E-02 
391	 4.42011361712794E-02 
392	 4.43231990141866E-02 
393	 4.43967159010918E-02 
394	 4.41572059420523E-02 
395	 0.044046593371804 
396	 4.39661190870472E-02 
397	 4.38860584199827E-02 
398	 4.38792285014282E-02 
399	 4.44226696537299E-02 
400	 4.45590098799547E-02 
401	 4.42918708193498E-02 
402	 4.41679422720559E-02 
403	 0.043825454233399 
404	 4.38338224605334E-02 
405	 4.41916242465809E-02 
406	 4.40840483229488E-02 
407	 4.35715927204871E-02 
408	 4.31743508912075E-02 
409	 4.31611094067316E-02 
410	 4.27604567316358E-02 
411	 4.30433303291464E-02 
412	 4.32877550763607E-02 
413	 4.25360159435043E-02 
414	 4.28738129055269E-02 
415	 4.28144377809409E-02 
416	 4.22782382413854E-02 
417	 4.24923609855319E-02 
418	 4.22333625236555E-02 
419	 0.041944374162386 
420	 4.19635994913968E-02 
421	 4.19598765953297E-02 
422	 4.19462510578644E-02 
423	 4.18773155634077E-02 
424	 4.16902809566865E-02 
425	 4.12223504141543E-02 
426	 4.11250214461929E-02 
427	 4.14130040441301E-02 
428	 4.16254251855396E-02 
429	 4.14036060797112E-02 
430	 4.12319006275388E-02 
431	 0.041288647083493 
432	 4.11935194450724E-02 
433	 4.15109234960031E-02 
434	 0.041687857927695 
435	 4.14448099077913E-02 
436	 4.20266128335487E-02 
437	 0.042158082699855 
438	 4.18683074394835E-02 
439	 4.17792163245454E-02 
440	 4.18559554269811E-02 
441	 4.21309168434556E-02 
442	 4.24544675677505E-02 
443	 4.24987923475897E-02 
444	 4.23205897686074E-02 
445	 4.23260690467903E-02 
446	 4.26650325626494E-02 
447	 4.26834338944859E-02 
448	 4.27536061363141E-02 
449	 4.27443228596905E-02 
450	 4.24499660520635E-02 
451	 4.24965873256643E-02 
452	 4.26229315482205E-02 
453	 4.26396680562548E-02 
454	 4.25173713480414E-02 
455	 0.042606055867692 
456	 0.042787596004079 
457	 0.042918595253809 
458	 4.30595762471317E-02 
459	 0.043096867872121 
460	 4.31897645427109E-02 
461	 4.35298077504343E-02 
462	 4.38070393360799E-02 
463	 4.38809148752002E-02 
464	 4.39476306038531E-02 
465	 4.45035131126686E-02 
466	 4.49649882006097E-02 
467	 4.54519424148404E-02 
468	 4.61107732943553E-02 
469	 4.67972199185171E-02 
470	 4.74743130794076E-02 
471	 4.81536092076293E-02 
472	 4.88681513447153E-02 
473	 4.95702546475233E-02 
474	 5.04747935438974E-02 
475	 5.15873532676761E-02 
476	 5.26794822419122E-02 
477	 5.37637074610017E-02 
478	 5.47744568133355E-02 
479	 5.57082246368944E-02 
480	 5.67349370547404E-02 
481	 5.77556575051559E-02 
482	 0.058889968154518 
483	 6.02258950303638E-02 
484	 6.09970715663437E-02 
485	 6.16158793478291E-02 
486	 6.23973455927119E-02 
487	 6.33925094949117E-02 
488	 6.44851852156063E-02 
489	 0.06525068193066 
490	 6.55399386056108E-02 
491	 0.065996063075079 
492	 6.69067999425954E-02 
493	 6.79098922737723E-02 
494	 6.84200056482749E-02 
495	 6.90499711863587E-02 
496	 6.97789004207647E-02 
497	 7.05182566862765E-02 
498	 7.11635381531022E-02 
499	 7.18897072457457E-02 
500	 7.25512539256143E-02 
501	 7.30592656623028E-02 
502	 7.37955922119591E-02 
503	 7.46695086559284E-02 
504	 7.55597537322788E-02 
505	 7.63570301758016E-02 
506	 7.72056347786332E-02 
507	 7.81202062316281E-02 
508	 0.07901947544046 
509	 7.96934243657142E-02 
510	 8.05981134817656E-02 
511	 8.15091221575686E-02 
512	 8.22151734512548E-02 
513	 8.33801744684569E-02 
514	 8.46039572737987E-02 
515	 8.57024311566357E-02 
516	 8.66945662030478E-02 
517	 8.78119837909448E-02 
518	 8.90253285200852E-02 
519	 9.02314321308076E-02 
520	 9.12927616955508E-02 
521	 9.26289917267595E-02 
522	 9.41033762006397E-02 
523	 9.54332631137758E-02 
524	 9.66309371218472E-02 
525	 9.79144556249776E-02 
526	 9.93409798870381E-02 
527	 0.100779468808676 
528	 0.102035774771894 
529	 0.10340135286092 
530	 0.105004780854174 
531	 0.106284322501461 
532	 0.107781089764463 
533	 0.109461653503928 
534	 0.111003843720601 
535	 0.112247101626095 
536	 0.113513744547975 
537	 0.114901927481679 
538	 0.116130321663591 
539	 0.117624031885324 
540	 0.119175253588 
541	 0.120483857549547 
542	 0.121554276816333 
543	 0.122748946476821 
544	 0.124074070601474 
545	 0.125284422458088 
546	 0.126249518916597 
547	 0.127309290805661 
548	 0.128568389702837 
549	 0.129599909748583 
550	 0.13035798542703 
551	 0.131113999906202 
552	 0.132114116303972 
553	 0.132830703641506 
554	 0.133605052796225 
555	 0.13444449149505 
556	 0.135015769849242 
557	 0.13567058612085 
558	 0.136159973605415 
559	 0.136358473399961 
560	 0.136824805833757 
561	 0.137175360569939 
562	 0.137378968786613 
563	 0.137545488147192 
564	 0.137493330110108 
565	 0.137401929852066 
566	 0.137324871874354 
567	 0.137084718296481 
568	 0.136848086684236 
569	 0.136470032085911 
570	 0.135836798393202 
571	 0.135298178113446 
572	 0.134919982815228 
573	 0.134494275409572 
574	 0.133658946627447 
575	 0.132949330624868 
576	 0.132315483664203 
577	 0.131605496365691 
578	 0.130629659562458 
579	 0.129742409659772 
580	 0.128855141678776 
581	 0.127774062614172 
582	 0.126860731873528 
583	 0.125862076105928 
584	 0.124697600171582 
585	 0.123536567516645 
586	 0.122360363142474 
587	 0.121149305416636 
588	 0.119826755863273 
589	 0.118328070534591 
590	 0.116963731572456 
591	 0.115706863000989 
592	 0.114170668203172 
593	 0.112423260781323 
594	 0.110752808550702 
595	 0.109319646685486 
596	 0.108009884204436 
597	 0.106565542627656 
598	 0.105042792405255 
599	 0.103612959953706 
600	 0.102322528134243 
601	 0.100964004861189 
602	 9.96146675047482E-02 
603	 9.86027865895925E-02 
604	 9.75835410466739E-02 
605	 9.65197280682564E-02 
606	 9.54468413718458E-02 
607	 9.44170258347691E-02 
608	 0.093515157391424 
609	 9.27680429088703E-02 
610	 0.092154390929094 
611	 9.15386836304934E-02 
612	 9.09737420487459E-02 
613	 9.04281098991002E-02 
614	 8.97327778745204E-02 
615	 0.089223550048575 
616	 8.88273248906655E-02 
617	 8.84094918015501E-02 
618	 0.088059163241612 
619	 8.76674099171523E-02 
620	 8.72740882431602E-02 
621	 8.70235583937581E-02 
622	 8.67850967284341E-02 
623	 8.65836714419146E-02 
624	 8.64150366779275E-02 
625	 8.61231261372947E-02 
626	 8.61557277966167E-02 
627	 8.62248206553757E-02 
628	 8.58768154524308E-02 
629	 8.57137722748858E-02 
630	 8.55661513651841E-02 
631	 8.54688051142847E-02 
632	 8.57250039396559E-02 
633	 8.55205068237713E-02 
634	 0.085135887352768 
635	 8.49399006800726E-02 
636	 8.48149340305986E-02 
637	 8.44128419158725E-02 
638	 8.38493403812019E-02 
639	 8.34739632335858E-02 
640	 8.31572587158519E-02 
641	 8.28539142692083E-02 
642	 8.25507216334996E-02 
643	 8.22667977448498E-02 
644	 8.20226237244436E-02 
645	 8.16587369147951E-02 
646	 8.10957854430545E-02 
647	 8.09269784823113E-02 
648	 8.10834432007118E-02 
649	 8.11771945538789E-02 
650	 8.06749861941134E-02 
651	 8.01761463994188E-02 
652	 8.01858310861237E-02 
653	 8.07721869476881E-02 
654	 0.081088658738277 
655	 8.15860893827411E-02 
656	 8.19145072828399E-02 
657	 8.15470256848046E-02 
658	 8.15465833256651E-02 
659	 8.17903105775775E-02 
660	 8.20931515728156E-02 
661	 8.22764205868263E-02 
662	 8.27040813798038E-02 
663	 8.29338022441126E-02 
664	 8.26649374440105E-02 
665	 8.25718450676973E-02 
666	 0.082999780965869 
667	 8.36501594001333E-02 
668	 8.39003657176667E-02 
669	 8.42084479741898E-02 
670	 8.45233033324451E-02 
671	 8.48110953424329E-02 
672	 0.085142370697056 
673	 8.56585465978325E-02 
674	 8.63553912462379E-02 
675	 8.71687463816165E-02 
676	 8.80475236151409E-02 
677	 8.87888135169656E-02 
678	 8.94090123145005E-02 
679	 9.01144445091532E-02 
680	 9.11563078137639E-02 
681	 9.21202928923784E-02 
682	 9.29230691893721E-02 
683	 9.44547114938334E-02 
684	 9.60135694027165E-02 
685	 9.74736842156422E-02 
686	 9.91304978690038E-02 
687	 0.101256137801585 
688	 0.103116126880987 
689	 0.104687700837701 
690	 0.107203643056518 
691	 0.109747910432999 
692	 0.11186304670249 
693	 0.113537763241903 
694	 0.115579058945282 
695	 0.117338029452359 
696	 0.118933444879892 
697	 0.120852120257098 
698	 0.12271481651742 
699	 0.124298922451307 
700	 0.125739947344436 
701	 0.127807414367376 
702	 0.128848854327802 
703	 0.12954110331225 
704	 0.130642439873006 
705	 0.131456949481471 
706	 0.132276394077296 
707	 0.133103668995154 
708	 0.133815375792516 
709	 0.134358477189068 
710	 0.134544795178939 
711	 0.134574750145915 
712	 0.1351862353736 
713	 0.135482771025944 
714	 0.135676462307028 
715	 0.136073060574107 
716	 0.136081893076476 
717	 0.136040591796243 
718	 0.136053990508742 
719	 0.136015213681882 
720	 0.136360688685137 
721	 0.136555567405665 
722	 0.136468988976418 
723	 0.136355493095907 
724	 0.136089643284057 
725	 0.136229578854107 
726	 0.137132115329914 
727	 0.137749083737601 
728	 0.138000548328958 
729	 0.138123752150519 
730	 0.138492487417899 
731	 0.138651793906796 
732	 0.139198181687537 
733	 0.140233482505841 
734	 0.141322309038013 
735	 0.142315522773551 
736	 0.143230241593072 
737	 0.144084429215053 
738	 0.144855533934798 
739	 0.145868453355262 
740	 0.147148674262575 
741	 0.148547022879166 
742	 0.150212867853548 
743	 0.151533492163099 
744	 0.152551064444193 
745	 0.154305669754662 
746	 0.155813435727595 
747	 0.157190096843085 
748	 0.158726616588494 
749	 0.160277757485845 
750	 0.161646040048263 
751	 0.16301946997597 
752	 0.164714729141472 
753	 0.1659863385618 
754	 0.167155783426815 
755	 0.168444683170819 
756	 0.16977641313756 
757	 0.170931013011026 
758	 0.171966806109074 
759	 0.173145577950988 
760	 0.174067166599598 
761	 0.175665668879387 
762	 0.176967274982341 
763	 0.177113558047243 
764	 0.177470827030934 
765	 0.178066054917832 
766	 0.178591828959049 
767	 0.17877745388908 
768	 0.179153472411226 
769	 0.1794004515766 
770	 0.179426728527121 
771	 0.1799219066437 
772	 0.180209719717351 
773	 0.180411859575276 
774	 0.180809039549159 
775	 0.180829829937631 
776	 0.180954261733482 
777	 0.181293462732176 
778	 0.181590315719707 
779	 0.181749431077857 
780	 0.181998097157139 
781	 0.182480864536315 
782	 0.183115877803829 
783	 0.183531553079815 
784	 0.183817099577825 
785	 0.184206366636619 
786	 0.184840411148109 
787	 0.185584662284632 
788	 0.186321300388296 
789	 0.187022937135879 
790	 0.188377308733485 
791	 0.189371113165782 
792	 0.189923171540014 
793	 0.191226673200592 
794	 0.192385236451767 
795	 0.193460502198513 
796	 0.194602626972673 
797	 0.195678510861609 
798	 0.196935567385654 
799	 0.1982807186831 
800	 0.199588436641059 
801	 0.20118810320135 
802	 0.202819835101077 
803	 0.204143521594255 
804	 0.204994175604071 
805	 0.206698576805374 
806	 0.208432023151913 
807	 0.20972110269189 
808	 0.210875792394077 
809	 0.212352878378782 
810	 0.214053248170611 
811	 0.215739914768249 
812	 0.217312947582627 
813	 0.218657438125116 
814	 0.219801318163617 
815	 0.220914025188478 
816	 0.222268777221498 
817	 0.224620958368332 
818	 0.226891967604447 
819	 0.227361355496853 
820	 0.228803139095189 
821	 0.229792643434483 
822	 0.230071714451136 
823	 0.231385009982525 
824	 0.23293405945362 
825	 0.234312254971884 
826	 0.235389942226813 
827	 0.236122420768453 
828	 0.23717537324087 
829	 0.2385905388322 
830	 0.24006353257564 
831	 0.241138635893474 
832	 0.242376765768226 
833	 0.243398459443913 
834	 0.24362488228792 
835	 0.244955745056453 
836	 0.246284207658223 
837	 0.246981487812066 
838	 0.247198183342414 
839	 0.248331023572372 
840	 0.249650733057777 
841	 0.250421569193741 
842	 0.25049821777127 
843	 0.251229503794383 
844	 0.252113709053583 
845	 0.252591591317906 
846	 0.253367950348563 
847	 0.25418507709975 
848	 0.254760589618247 
849	 0.254944187512354 
850	 0.255243775303104 
851	 0.256058623533975 
852	 0.257100886395691 
853	 0.257681304913153 
854	 0.258008879088659 
855	 0.258141890675212 
856	 0.258436412953901 
857	 0.259365230899291 
858	 0.259396554830761 
859	 0.259689707226646 
860	 0.260625437034548 
861	 0.260862494662138 
862	 0.261544571318688 
863	 0.262019743247261 
864	 0.261890792151353 
865	 0.262375942100949 
866	 0.262724103651786 
867	 0.263229359364639 
868	 0.264151101662352 
869	 0.264526680441919 
870	 0.264530680820448 
871	 0.264493373287331 
872	 0.264788688511807 
873	 0.26565610676877 
874	 0.266047751719051 
875	 0.266247881883138 
876	 0.267162766432892 
877	 0.266945108372035 
878	 0.266586484107868 
879	 0.266896596528432 
880	 0.268046642952801 
881	 0.268486293060312 
882	 0.2685638679374 
883	 0.268577734011564 
884	 0.268408024543115 
885	 0.268667105255616 
886	 0.26961130776096 
887	 0.270626254701923 
888	 0.26986250144639 
889	 0.270347222891819 
890	 0.270815965768391 
891	 0.270316076552098 
892	 0.271580775045685 
893	 0.272059076620451 
894	 0.271707525012084 
895	 0.271536889084474 
896	 0.272895181572155 
897	 0.273093741201659 
898	 0.271573588004507 
899	 0.269826930186068 
900	 0.27167495944501 
901	 0.273875667913756 
902	 0.274100216774082 
903	 0.271998810357371 
904	 0.272075816877024 
905	 0.272496897811219 
906	 0.27262890418093 
907	 0.272784858229663 
908	 0.274150348606105 
909	 0.274876249152301 
910	 0.274794871754891 
911	 0.275096463755032 
912	 0.274169072274404 
913	 0.272279902597075 
914	 0.271126480999841 
915	 0.272763489382065 
916	 0.274724455448324 
917	 0.274655001225056 
918	 0.273478972992664 
919	 0.274215561992506 
920	 0.275691745747309 
921	 0.275445881737938 
922	 0.273641027738187 
923	 0.272964764229528 
924	 0.273842854048378 
925	 0.274499111166658 
926	 0.274871965437943 
927	 0.27735670976479 
928	 0.270587223656042 
929	 0.264091506055707 
930	 0.265747471053232 
931	 0.266901762789396 
932	 0.25848086244541 
933	 0.257656553998781 
934	 0.270337496875917 
935	 0.261616068576418 
936	 0.247426148102715 
937	 0.256179699211076 
938	 0.278275628100013 
939	 0.274444399977644 
940	 0.271865205884073 
941	 0.262911083235117 
942	 0.254674170562031 
943	 0.273381239362746 
944	 0.278897009213425 
945	 0.275469517622967 
946	 0.270668815552047 
947	 0.26434246171063 
948	 0.253454394114809 
949	 0.256645054671414 
950	 0.268457991545589 
951	 0.259928295814762 
952	 0.252247838492267 
953	 0.258233071166334 
954	 0.271398051773489 
955	 0.271569323911669 
956	 0.27291677283699 
957	 0.273749670229213 
958	 0.272369929639988 
959	 0.268963474012854 
960	 0.266011737934774 
961	 0.267344846443587 
962	 0.269883659806031 
963	 0.268748845461316 
964	 0.275090568253469 
965	 0.279520940492316 
966	 0.279569647853979 
967	 0.277825906393819 
968	 0.275263951146518 
969	 0.277447205228872 
970	 0.281316336812384 
971	 0.280416379302471 
972	 0.275717289988696 
973	 0.271721774375406 
974	 0.273307696685656 
975	 0.281058370328231 
976	 0.277937656717888 
977	 0.280967328853214 
978	 0.284243354351111 
979	 0.278431596086983 
980	 0.275898136542349 
981	 0.27750805198938 
982	 0.279750297569828 
983	 0.279370746895175 
984	 0.277340450119257 
985	 0.279402609349545 
986	 0.281541934393014 
987	 0.281205675659169 
988	 0.283368595755835 
989	 0.280605679969905 
990	 0.277512414383306 
991	 0.27794916211161 
992	 0.280364518771554 
993	 0.280032445386728 
994	 0.281262303829047 
995	 0.283927598257368 
996	 0.28215297455185 
997	 0.276492616398372 
998	 0.280350107207614 
999	 0.287224023438188 
1000	 0.279813811440814 
1001	 0.28616486621362 
1002	 0.286530814926408 
1003	 0.28948624179725 
1004	 0.29088114648577 
1005	 0.29011522715731 
1006	 0.289448032301669 
1007	 0.287639192203732 
1008	 0.287426072593451 
1009	 0.286886441966883 
1010	 0.288195912891353 
1011	 0.289640846498652 
1012	 0.290334955416117 
1013	 0.287987019223132 
1014	 0.286622601860141 
1015	 0.28522687807625 
1016	 0.28411116173183 
1017	 0.28360688703106 
1018	 0.283251355323011 
1019	 0.282690465769326 
1020	 0.282366668122896 
1021	 0.283416664610087 
1022	 0.286125341084883 
1023	 0.286395496582211 
1024	 0.286222721299654 
1025	 0.286485031153902 
1026	 0.28354203005882 
1027	 0.282259405573854 
1028	 0.286749472781722 
1029	 0.288899133840475 
1030	 0.29020037592822 
1031	 0.293200880843241 
1032	 0.293266821823962 
1033	 0.288786186069693 
1034	 0.288232512344406 
1035	 0.288846838204617 
1036	 0.288972396038 
1037	 0.289960856140596 
1038	 0.29093308682195 
1039	 0.292725467868138 
1040	 0.291680810619806 
1041	 0.2895959865694 
1042	 0.289022457977178 
1043	 0.284397108759821 
1044	 0.283850998226331 
1045	 0.286591038514174 
1046	 0.286327928221469 
1047	 0.288873955197203 
1048	 0.288394374776288 
1049	 0.288447447608565 
1050	 0.288442019958411 
1051	 0.288438776996385 
1052	 0.288045994568733 
1053	 0.288426043379335 
1054	 0.287577543150076 
1055	 0.285076991908697 
1056	 0.284759911763078 
1057	 0.285900269146681 
1058	 0.285116497870163 
1059	 0.287223555663512 
1060	 0.289191757522318 
1061	 0.287623781243524 
1062	 0.289451372329832 
1063	 0.289334811176529 
1064	 0.289124514324451 
1065	 0.287810629559759 
1066	 0.289350600513633 
1067	 0.288720976662758 
1068	 0.289014750766148 
1069	 0.291348548493577 
1070	 0.290784095240227 
1071	 0.288783306265158 
1072	 0.288653049525471 
1073	 0.286017352882716 
1074	 0.284829805946294 
1075	 0.286639755507159 
1076	 0.286674751839876 
1077	 0.287348730568719 
1078	 0.287722220366704 
1079	 0.288445211107758 
1080	 0.289150491809902 
1081	 0.290246686325533 
1082	 0.291753777080322 
1083	 0.293608863838981 
1084	 0.292297971778764 
1085	 0.290973893806482 
1086	 0.291594177175962 
1087	 0.293183994244736 
1088	 0.295557511918353 
1089	 0.296603718086877 
1090	 0.296996375762348 
1091	 0.296461289314415 
1092	 0.295205361259004 
1093	 0.296066951362379 
1094	 0.29609479545061 
1095	 0.295046833219677 
1096	 0.291992656126798 
1097	 0.289669172808908 
1098	 0.288546079944208 
1099	 0.287581020733104 
1100	 0.287569423491303 
1101	 0.29071402760928 
1102	 0.293004605517367 
1103	 0.296302112052304 
1104	 0.297902516314047 
1105	 0.294497155591042 
1106	 0.293592705636372 
1107	 0.291676412845979 
1108	 0.289382925928871 
1109	 0.293123189411186 
1110	 0.295462440813727 
1111	 0.297806958036309 
1112	 0.297385975854842 
1113	 0.296874773331263 
1114	 0.294134955021364 
1115	 0.28678906476387 
1116	 0.282631999696474 
1117	 0.280629398686159 
1118	 0.277790658104486 
1119	 0.261055667234436 
1120	 0.258433444345951 
1121	 0.285455049145308 
1122	 0.276791419207621 
1123	 0.274668103236454 
1124	 0.265016652407632 
1125	 0.211118047506459 
1126	 0.212527121850473 
1127	 0.200604513604493 
1128	 0.210928526577174 
1129	 0.191487157130469 
1130	 0.156515982204212 
1131	 0.122950759693911 
1132	 0.115334571808961 
1133	 0.131597044688594 
1134	 0.18614445671291 
1135	 0.244121047331943 
1136	 0.261091420857775 
1137	 0.266904528978258 
1138	 0.279826797713758 
1139	 0.268754158967618 
1140	 0.264087571985297 
1141	 0.280063323028017 
1142	 0.28609138572737 
1143	 0.283213102641088 
1144	 0.292685938206555 
1145	 0.316804949297601 
1146	 0.312650996516401 
1147	 0.294974452976968 
1148	 0.289492131751931 
1149	 0.254000955411136 
1150	 0.240548918861863 
1151	 0.265559289885185 
1152	 0.260427405208257 
1153	 0.261627498124062 
1154	 0.271640533112262 
1155	 0.267818940757325 
1156	 0.27669296960329 
1157	 0.293705491628189 
1158	 0.306484757561472 
1159	 0.308703116146517 
1160	 0.307633280941403 
1161	 0.305729617017938 
1162	 0.296726191621134 
1163	 0.29399482503273 
1164	 0.29459028340405 
1165	 0.293659281241054 
1166	 0.2914656427163 
1167	 0.292029808059878 
1168	 0.294050776774032 
1169	 0.295347515766567 
1170	 0.298528737387067 
1171	 0.299633404748092 
1172	 0.298264880106005 
1173	 0.299020604840043 
1174	 0.297387275225804 
1175	 0.294692565541663 
1176	 0.293354818879252 
1177	 0.291131335012668 
1178	 0.289898141623326 
1179	 0.291164091043199 
1180	 0.29107192190426 
1181	 0.289331870163629 
1182	 0.289246893035408 
1183	 0.290412127147119 
1184	 0.2898622575054 
1185	 0.289535961371303 
1186	 0.290848907517905 
1187	 0.291951230034836 
1188	 0.292152681576421 
1189	 0.2911800634886 
1190	 0.291475217585511 
1191	 0.290958865380672 
1192	 0.289274986505765 
1193	 0.288588072660666 
1194	 0.28885622645466 
1195	 0.288330535762308 
1196	 0.287469826528388 
1197	 0.286770827501635 
1198	 0.28624661432328 
1199	 0.285679128607224 
1200	 0.284739270079861 
1201	 0.283966907178986 
1202	 0.283731131962999 
1203	 0.282287625455974 
1204	 0.280853238103323 
1205	 0.281468909654088 
1206	 0.281939251807144 
1207	 0.281363114641449 
1208	 0.279509185581867 
1209	 0.275868935151452 
1210	 0.273525218572192 
1211	 0.269663032418371 
1212	 0.268825451021518 
1213	 0.270953838823394 
1214	 0.270504879475799 
1215	 0.269208698956444 
1216	 0.269049850039892 
1217	 0.268718701676984 
1218	 0.268601299685254 
1219	 0.268534614702584 
1220	 0.270114243508282 
1221	 0.272986015504182 
1222	 0.274046553271751 
1223	 0.276687646618443 
1224	 0.279823685429178 
1225	 0.279134608828842 
1226	 0.279544289226057 
1227	 0.280557498401997 
1228	 0.28009767093578 
1229	 0.281173947814039 
1230	 0.28335416205915 
1231	 0.284757831140056 
1232	 0.286584239552052 
1233	 0.287893694478106 
1234	 0.288524402251255 
1235	 0.289080888000186 
1236	 0.289153026694535 
1237	 0.29012175263218 
1238	 0.291763795108925 
1239	 0.293046079976394 
1240	 0.294891513183247 
1241	 0.29610956460239 
1242	 0.297074806995327 
1243	 0.296844454895621 
1244	 0.297378156636582 
1245	 0.298438898258976 
1246	 0.299463298876978 
1247	 0.30010447107082 
1248	 0.300180713051819 
1249	 0.299522775342348 
1250	 0.299594994737426 
1251	 0.299530451718958 
1252	 0.299857605584089 
1253	 0.300996159122412 
1254	 0.301016380685479 
1255	 0.30043412606654 
1256	 0.300001344143586 
1257	 0.298882112134089 
1258	 0.298792978985055 
1259	 0.298950889611428 
1260	 0.299291460514706 
1261	 0.301082249563195 
1262	 0.301731699938361 
1263	 0.301169586549164 
1264	 0.302192603071159 
1265	 0.303381159918372 
1266	 0.30242978642791 
1267	 0.301577588935446 
1268	 0.301861637015828 
1269	 0.302748936501312 
1270	 0.303888740639511 
1271	 0.304573283061403 
1272	 0.306713698137456 
1273	 0.306627548319397 
1274	 0.304724225538821 
1275	 0.303692290302744 
1276	 0.301929320297677 
1277	 0.301691044223806 
1278	 0.301713987662422 
1279	 0.302267055985881 
1280	 0.304992798823278 
1281	 0.305349354822913 
1282	 0.304235955612381 
1283	 0.304401678808115 
1284	 0.303662735286619 
1285	 0.304095268056358 
1286	 0.305008429100646 
1287	 0.305810129549486 
1288	 0.307212879836861 
1289	 0.305768943449599 
1290	 0.306108226944899 
1291	 0.307354643860607 
1292	 0.307663868432185 
1293	 0.308222387635928 
1294	 0.308176343243164 
1295	 0.307087277711231 
1296	 0.306571655935214 
1297	 0.30511143729228 
1298	 0.304997522378002 
1299	 0.306422014617423 
1300	 0.307068154045498 
1301	 0.307656635758947 
1302	 0.308942387483808 
1303	 0.311041398792107 
1304	 0.311848010627835 
1305	 0.31289363763666 
1306	 0.313724492357576 
1307	 0.313700112425075 
1308	 0.312334388497286 
1309	 0.312557340681383 
1310	 0.31077255458505 
1311	 0.310627769594804 
1312	 0.307886734289176 
1313	 0.306088776043509 
1314	 0.304158104654291 
1315	 0.304002872305312 
1316	 0.304146110323641 
1317	 0.305000542151995 
1318	 0.308251622441897 
1319	 0.309889774395213 
1320	 0.310557596306577 
1321	 0.312066379987518 
1322	 0.31493763393145 
1323	 0.315823992126453 
1324	 0.31586895760018 
1325	 0.315805485478152 
1326	 0.315833447000286 
1327	 0.312563290912707 
1328	 0.302375675714555 
1329	 0.298565325878162 
1330	 0.295382504793428 
1331	 0.292131645288722 
1332	 0.299619423128353 
1333	 0.302556120956144 
1334	 0.298124788871632 
1335	 0.29101572518866 
1336	 0.290358646313461 
1337	 0.291268960376809 
1338	 0.294377068314943 
1339	 0.307372956087489 
1340	 0.305646613355329 
1341	 0.293224760196149 
1342	 0.289773612680878 
1343	 0.274913755783982 
1344	 0.27638189688341 
1345	 0.313115630678136 
1346	 0.327252727045501 
1347	 0.336343628631494 
1348	 0.346405501729514 
1349	 0.311381509970842 
1350	 0.288902331052536 
1351	 0.305516243905382 
1352	 0.298923361455871 
1353	 0.226662571570827 
1354	 0.191050918927316 
1355	 1.02225535275394 
1356	-7.92506230138109E-03 
1357	-0.978560012356181 
1358	-1.26611454773387 
1359	-0.762823694323184 
1360	-0.25734578631166 
1361	 0.124022066925791 
1362	-0.246513556241292 
1363	-1.11396329761828 
1364	 0.180100643293148 
1365	 0.310034635807035 
1366	-0.247311581870281 
1367	-0.406061024308818 
1368	-0.750252342761976 
1369	-0.758907857192476 
1370	-1.28003965150337 
1371	-2.04885190508336 
1372	-1.87384571038859 
1373	-1.77041619342037 
1374	-2.09583234927178 
1375	-5.28669819082016 
1376	 8.17474817041056 
1377	 2.07333868234317 
1378	 7.74464293398507E-02 
1379	-4.09956416350406E-02 
1380	-0.192722089819989 
1381	-0.413070192283483 
1382	 0.131675510871631 
1383	-0.156087415310735 
1384	-0.183180711074817 
1385	-0.223940465291754 
1386	-0.673728111837402 
1387	-0.811359453064107 
1388	-0.652165189209003 
1389	-0.557802211343905 
1390	-0.64440100099867 
1391	-1.03853855668925 
1392	-0.859233798968149 
1393	-0.343394136647914 
1394	-0.300910289499715 
1395	-4.05840471837081E-02 
1396	 0.052360819307675 
1397	-50.7538071527712 
1398	-7.15514663648193 
1399	-0.733836861603321 
1400	-0.287425834965357 
1401	 0.544857895652447 
1402	 0.808164716974598 
1403	 2.89735877628313 
1404	-10.3241218753449 
1405	 9.34337129968845E-02 
1406	 0.322875713623955 
1407	 0.447054559810493 
1408	 0.474400930502913 
1409	 0.795754076158187 
1410	 0.659677898226822 
1411	 0.781206051428193 
1412	 0.885550768565335 
1413	 7.26620443795555 
1414	-130.485656106941 
1415	 1.68087477566658 
1416	 1.02378150488104 
1417	 0.465638879409534 
1418	 0.193176859795179 
1419	-0.047848663820887 
1420	-0.707335827529767 
1421	-0.996759413289145 
1422	-1.24073846218831 
1423	-0.962576828890137 
1424	-0.583183063596974 
1425	-0.361940291972542 
1426	 0.231844739386311 
1427	 0.314427826587908 
1428	 0.162061141898333 
1429	 7.15526030570586E-02 
1430	-0.228664679891405 
1431	-0.301451865726432 
1432	-0.179985371897258 
1433	-0.175645899650722 
1434	-0.346182545729834 
1435	-0.319520339515439 
1436	-8.27813498433919E-02 
1437	 2.13802898211909E-02 
1438	 0.273374420065895 
1439	 0.375160199505724 
1440	 0.293813453577076 
1441	 0.260341423170082 
1442	 0.224935375733247 
1443	 0.183708266016799 
1444	 0.151395232404138 
1445	 0.122743881355774 
1446	 7.67631521309326E-02 
1447	 4.00132753502917E-02 
1448	-2.63057777680266E-02 
1449	-4.17249909391326E-02 
1450	-5.80776571453561E-02 
1451	-2.63690859600972E-02 
1452	 6.67911053822202E-02 
1453	 9.56864003570443E-02 
1454	 0.09125969110935 
1455	 0.129597144162323 
1456	 0.16503999627531 
1457	 0.149223770684618 
1458	 0.146214246025726 
1459	 0.152325356423122 
1460	 0.150928683403565 
1461	 0.119480440956802 
1462	 0.131685677997706 
1463	 0.174400185399934 
1464	 0.197478359657441 
1465	 0.248579133727476 
1466	 0.262039420451482 
1467	 0.241939197688097 
1468	 0.234164119717078 
1469	 0.205836556187642 
1470	 0.192880386051118 
1471	 0.178776916341124 
1472	 0.191377981449392 
1473	 0.221168459687095 
1474	 0.238607556718963 
1475	 0.280733677678665 
1476	 0.289638177857831 
1477	 0.278634177965481 
1478	 0.267540808791965 
1479	 0.228635090429159 
1480	 0.236543345272545 
1481	 0.258135876423623 
1482	 0.280464059734322 
1483	 0.345153978912943 
1484	 0.361605090463161 
1485	 0.352530177920895 
1486	 0.34680813350199 
1487	 0.32060051944075 
1488	 0.316405641530641 
1489	 0.322110044043134 
1490	 0.325043944653592 
1491	 0.336939609752936 
1492	 0.338820981681098 
1493	 0.335274134595177 
1494	 0.332040709270918 
1495	 0.31964619975256 
1496	 0.318510050129352 
1497	 0.322996909920016 
1498	 0.326951103912136 
1499	 0.335219765986388 
1500	 0.345847586063272 
1501	 0.346129710422192 
1502	 0.345284242440418 
1503	 0.339267083158373 
1504	 0.334553836241727 
1505	 0.33207683921939 
1506	 0.330231195598279 
1507	 0.329065664017622 
1508	 0.328079004877089 
1509	 0.331290199844852 
1510	 0.337377251125114 
1511	 0.339901603945779 
1512	 0.344591645099699 
1513	 0.3452746706021 
1514	 0.340869515509531 
1515	 0.341530441859244 
1516	 0.344691673381085 
1517	 0.345222275248488 
1518	 0.346972751778755 
1519	 0.34597397370907 
1520	 0.340868461916486 
1521	 0.340012510839768 
1522	 0.340333265874224 
1523	 0.340188118114876 
1524	 0.341483989515411 
1525	 0.342312622882081 
1526	 0.342249199226059 
1527	 0.343117093402196 
1528	 0.346383503591994 
1529	 0.346186713199209 
1530	 0.343350357372668 
1531	 0.342416729688908 
1532	 0.34209070528805 
1533	 0.339371013304921 
1534	 0.335318209486827 
1535	 0.333747230941954 
1536	 0.330326929727636 
1537	 0.329270922300503 
1538	 0.332150215853016 
1539	 0.33368525555311 
1540	 0.335554160857929 
1541	 0.33590241682974 
1542	 0.335964169574997 
1543	 0.335787033950125 
1544	 0.333484894259244 
1545	 0.332576917566486 
1546	 0.332665023722827 
1547	 0.332624249560591 
1548	 0.332625843073093 
1549	 0.33333519131669 
1550	 0.334895559390226 
1551	 0.335561218289355 
1552	 0.336889671454635 
1553	 0.336912360452629 
1554	 0.335453993477483 
1555	 0.334576677720448 
1556	 0.332373721376923 
1557	 0.331635136163853 
1558	 0.332288861083707 
1559	 0.332440848295927 
1560	 0.332399889940679 
1561	 0.333466900869185 
1562	 0.334491680229221 
1563	 0.336756341693034 
1564	 0.3397578127116 
1565	 0.342840775741718 
1566	 0.343400683170927 
1567	 0.342764796982444 
1568	 0.342065225826196 
1569	 0.340919717748939 
1570	 0.341173742018187 
1571	 0.339381284254358 
1572	 0.333470685992989 
1573	 0.331637780571134 
1574	 0.330815124371228 
1575	 0.328360023940942 
1576	 0.330446314987668 
1577	 0.331307013396779 
1578	 0.33234009157731 
1579	 0.336704467367513 
1580	 0.341578952731425 
1581	 0.343371574818718 
1582	 0.338734873379616 
1583	 0.335239835687656 
1584	 0.331457480245785 
1585	 0.327744923448831 
1586	 0.32794540359006 
1587	 0.33311880740899 
1588	 0.334484142382534 
1589	 0.336659550883066 
1590	 0.336528700153792 
1591	 0.334595057906003 
1592	 0.333277081555884 
1593	 0.330400226275885 
1594	 0.329535423291861 
1595	 0.32930496878733 
1596	 0.33014087456978 
1597	 0.332360700017573 
1598	 0.333339800861883 
1599	 0.335549465121117 
1600	 0.335106989919271 
1601	 0.332664895205165 
1602	 0.332251946784401 
1603	 0.331564152235318 
1604	 0.329520445679858 
1605	 0.32705931830388 
1606	 0.325650171413477 
1607	 0.32224200592181 
1608	 0.323905541536386 
1609	 0.330784872945875 
1610	 0.33333038881019 
1611	 0.335669979711194 
1612	 0.337079786427349 
1613	 0.336389822801125 
1614	 0.336877127407135 
1615	 0.338934615316594 
1616	 0.33826678083972 
1617	 0.3355871556077 
1618	 0.333612588326753 
1619	 0.329953385211924 
1620	 0.329609739696554 
1621	 0.331551038165524 
1622	 0.331450258278631 
1623	 0.332375486612029 
1624	 0.331362720968937 
1625	 0.3283766027127 
1626	 0.326373333853392 
1627	 0.32329879020554 
1628	 0.323318578797184 
1629	 0.32555478037692 
1630	 0.324369174705505 
1631	 0.323668840376631 
1632	 0.3230927913931 
1633	 0.319390947563815 
1634	 0.319069728242194 
1635	 0.321940922845024 
1636	 0.321987220435557 
1637	 0.319874643609384 
1638	 0.321115458602472 
1639	 0.324360143545669 
1640	 0.32625083618403 
1641	 0.33075147085523 
1642	 0.331271438415886 
1643	 0.327139391802368 
1644	 0.327901965612717 
1645	 0.329852163481729 
1646	 0.330661787532757 
1647	 0.333958754219888 
1648	 0.334385989245925 
1649	 0.330723880240713 
1650	 0.331841800665088 
1651	 0.336449473328418 
1652	 0.336573347028091 
1653	 0.337289507384847 
1654	 0.334815612745659 
1655	 0.326281837672436 
1656	 0.324076996565117 
1657	 0.323892510199787 
1658	 0.323825794305624 
1659	 0.326682282361822 
1660	 0.326946190780174 
1661	 0.326058437858864 
1662	 0.324778353898024 
1663	 0.324359992723781 
1664	 0.324315983635958 
1665	 0.324380131828297 
1666	 0.322956401344056 
1667	 0.320280641296635 
1668	 0.319957754861729 
1669	 0.319148516464341 
1670	 0.319535372949468 
1671	 0.322985767632569 
1672	 0.323155931437798 
1673	 0.320623829913757 
1674	 0.321207758825914 
1675	 0.323552492080035 
1676	 0.327879537279534 
1677	 0.331334223238699 
1678	 0.33253668530843 
1679	 0.332327346209903 
1680	 0.328275462386321 
1681	 0.325738442076154 
1682	 0.319667596473311 
1683	 0.311677899199014 
1684	 0.308198323158562 
1685	 0.305111374410455 
1686	 0.307039615434301 
1687	 0.309443717660907 
1688	 0.307359191092075 
1689	 0.306308309317696 
1690	 0.304578152133585 
1691	 0.301960677475803 
1692	 0.30482238531125 
1693	 0.306295070455986 
1694	 0.303043040796715 
1695	 0.305671453237675 
1696	 0.304206501047361 
1697	 0.300079261064366 
1698	 0.304343401873477 
1699	 0.301088086894225 
1700	 0.292790653573526 
1701	 0.289608724176408 
1702	 0.282759177436561 
1703	 0.2762833424692 
1704	 0.277724569230447 
1705	 0.277429243010641 
1706	 0.273095129051617 
1707	 0.272718199454624 
1708	 0.268948556478706 
1709	 0.264380353668738 
1710	 0.264447859270023 
1711	 0.263000917734714 
1712	 0.259354772776289 
1713	 0.25205741417677 
1714	 0.246567623553511 
1715	 0.239237507998841 
1716	 0.230995035354944 
1717	 0.230330847315837 
1718	 0.228188365682898 
1719	 0.225171823885718 
1720	 0.231912497706797 
1721	 0.232442510794985 
1722	 0.22958066112114 
1723	 0.227434025097653 
1724	 0.222988549043316 
1725	 0.217153297283494 
1726	 0.210827819101043 
1727	 0.206808444936137 
1728	 0.201039475225547 
1729	 0.199093913740066 
1730	 0.200106905948465 
1731	 0.202049465526433 
1732	 0.205370639815943 
1733	 0.210304362612742 
1734	 0.222505662344593 
1735	 0.223729291946875 
1736	 0.216960426781249 
1737	 0.217990077384302 
1738	 0.216033631768699 
1739	 0.218657447298949 
1740	 0.227749813920197 
1741	 0.23673157149967 
1742	 0.244721247521397 
1743	 0.253749325303558 
1744	 0.262211826301209 
1745	 0.264880524585556 
1746	 0.259038665096145 
1747	 0.254487834593245 
1748	 0.25223938299795 
1749	 0.2517511083267 
1750	 0.250520907237935 
1751	 0.245696043842034 
1752	 0.245151897495854 
1753	 0.245374919532565 
1754	 0.241493728578667 
1755	 0.245624138754868 
1756	 0.255018399691532 
1757	 0.259169046633108 
1758	 0.265166400492482 
1759	 0.270999499383662 
1760	 0.267996646095328 
1761	 0.259046419830074 
1762	 0.251854463295609 
1763	 0.249286569908417 
1764	 0.240894547463819 
1765	 0.23763946091775 
1766	 0.240300475614724 
1767	 0.236114499780848 
1768	 0.230230646737471 
1769	 0.212580712367656 
1770	 0.212300988965362 
1771	 0.217625053451221 
1772	 0.221973556394758 
1773	 0.260203991929779 
1774	 0.278334131119487 
1775	 0.272426240760934 
1776	 0.271581563008477 
1777	 0.22870237432903 
1778	 0.228053537045904 
1779	 0.265933339057703 
1780	 0.270655396256547 
1781	 0.298810597865749 
1782	 0.324452971963863 
1783	 0.329773878803067 
1784	 0.371317515273347 
1785	 0.389289974045269 
1786	 0.344292273016128 
1787	 0.331159499871747 
1788	 0.344198913511334 
1789	 0.357460337462338 
1790	 0.375003761278945 
1791	 0.360745592588296 
1792	 0.30676782842166 
1793	 0.293866395068852 
1794	 0.332141937081669 
1795	 0.403036923869443 
1796	 0.576288598016247 
1797	 0.60572698250737 
1798	 0.707163465184085 
1799	 0.857901439679771 
1800	 0.55506747208486 
1801	 1.58419753623169 
1802	 1.71020581842538 
1803	 1.65163158273716 
1804	 1.66790041810917 
1805	 1.62585421505954 
1806	 1.30756445082212 
1807	 1.20026496623605 
1808	 1.13008354509195 
1809	 1.07949997947297 
1810	 1.13190364906888 
1811	 1.02228848458311 
1812	 0.805575768572752 
1813	 0.728685600085109 
1814	 0.588499544140853 
1815	 0.590451775931411 
1816	 0.751539649032231 
1817	 0.965354572735242 
1818	 1.06905727909757 
1819	 1.19128893730152 
1820	 1.40211544459297 
1821	 1.58625589728619 
1822	 1.82590970743146 
1823	 2.66834034964688 
1824	 2.88696420703813 
1825	 2.21189011171652 
1826	 1.8204235028258 
1827	 1.75155265117592 
1828	 1.70510824480136 
1829	 1.6534993205519 
1830	 1.87549175938738 
1831	 1.93170944129636 
1832	 1.69589950673174 
1833	 1.5837542797744 
1834	 1.68295716484522 
1835	 1.64270688345008 
1836	 1.56266403761272 
1837	 1.42350971090566 
1838	 1.39705257436492 
1839	 1.35124044143963 
1840	 1.36502412532459 
1841	 1.4025397557989 
1842	 1.533615966148 
1843	 2.02525853171138 
1844	 2.25735422234124 
1845	 2.79234831503396 
1846	 2.62278475032144 
1847	 2.29950860152065 
1848	 1.79669413101944 
1849	 1.24339718166299 
1850	 0.583986140661541 
1851	 0.430563809743276 
1852	 0.263475548282946 
1853	 0.241555568033147 
1854	 0.473356721550793 
1855	 0.644229820352124 
1856	 0.841694729633255 
1857	 1.15960039377666 
1858	 1.23159549983783 
1859	 1.17359342227194 
1860	 1.11082667450296 
1861	 0.786895423312321 
1862	 0.716525717649612 
1863	 0.703386675706463 
1864	 0.75457358976747 
1865	 0.992360105497096 
1866	 1.19530241355557 
1867	 1.45343040379837 
1868	 2.04764382558714 
1869	 2.26254963337126 
1870	 2.11585008936356 
1871	 2.15295761061233 
1872	 1.96785226664493 
1873	 1.84518300909964 
1874	 1.79932262193211 
1875	 1.7318527176889 
1876	 1.55379418118846 
1877	 1.54250069770552 
1878	 1.36769995413838 
1879	 1.1167926627343 
1880	 1.0923617167313 
1881	 1.12090950542235 
1882	 1.06897138776129 
1883	 1.21779162665876 
1884	 1.27206134026468 
1885	 1.02915362225687 
1886	 1.00715420816019 
1887	 1.24938043468558 
1888	 1.29552889472899 
1889	 1.33009375985622 
1890	 1.37928098824633 
1891	 1.36959498261659 
1892	 1.29655677787498 
1893	 1.21540818048583 
1894	 1.0641065241166 
1895	 0.977750335881187 
1896	 0.788102191719516 
1897	 0.670263711356622 
1898	 0.695224249984939 
1899	 0.740395770065862 
1900	 0.697529994662665 
1901	 0.594398671473053 
1902	 0.604055665278408 
1903	 0.600693657864181 
1904	 0.657391572086599 
1905	 0.904173727905635 
1906	 1.06597450246428 
1907	 1.22488548864614 
1908	 1.30149132907764 
1909	 1.76986343466506 
1910	 1.84109722255387 
1911	 1.90364380672418 
1912	 2.16025194884858 
1913	 2.0141192366887 
1914	 1.35882802275803 
1915	 1.23781890832918 
1916	 1.17983566836325 
1917	 1.12936315858042 
1918	 1.29618516048357 
1919	 1.11367937042737 
1920	 0.910504971620655 
1921	 0.969627824546669 
1922	 1.01065462255624 
1923	 1.13646186898505 
1924	 1.14399879715617 
1925	 1.3026979398791 
1926	 1.1780306831026 
1927	 0.729642073920121 
1928	 0.628361026279958 
1929	 0.560718332508262 
1930	 0.55957356395749 
1931	 0.660406159840229 
1932	 0.904457715365932 
1933	 1.15097202731064 
1934	 1.52540671364929 
1935	 1.58352796341313 
1936	 1.31916922954705 
1937	 1.18618216063714 
1938	 0.858931812730074 
1939	 0.80019925114227 
1940	 0.82504304695348 
1941	 0.976051319859352 
1942	 0.987980932443158 
1943	 0.859896488029727 
1944	 0.929779503650044 
1945	 0.993377200086689 
1946	 1.04273355532971 
1947	 1.40677176611828 
1948	 1.49780265747221 
1949	 1.06270439246345 
1950	 1.08946904265349 
1951	 1.45153631741649 
1952	 1.60995225981282 
1953	 1.83417131992264 
1954	 2.14564378776275 
1955	 1.93324360187311 
1956	 1.875569787556 
1957	 1.74462735450567 
1958	 1.67488440966435 
1959	 1.54335297152819 
1960	 1.30830766226975 
1961	 1.09100754170855 
1962	 1.00370025451018 
1963	 0.85884197724003 
1964	 0.637534363881019 
1965	 0.675097419516897 
1966	 0.704479217841803 
1967	 0.721000805091096 
1968	 0.847710674385984 
1969	 0.965812129538135 
1970	 0.973220143224167 
1971	 0.932233585044467 
1972	 0.82909006943334 
1973	 0.582282944862293 
1974	 0.486754332154915 
1975	 0.361490751103749 
1976	 0.362727680547714 
1977	 0.448849513517842 
1978	 0.589566853819637 
1979	 0.714634135211856 
1980	 0.810568751617533 
1981	 0.801252424676107 
1982	 0.687777509615481 
1983	 0.647133630320629 
1984	 0.59445393493384 
1985	 0.553974999107455 
1986	 0.520683667825185 
1987	 0.526305616419814 
1988	 0.527614519826103 
1989	 0.546813807651328 
1990	 0.731210102919006 
1991	 0.848030223478146 
1992	 0.944678530903182 
1993	 1.03108922182791 
1994	 1.02681313336177 
1995	 1.02024010896929 
1996	 1.03990448148761 
1997	 1.16939604713168 
1998	 1.1434477375762 
1999	 0.901486202837472 
2000	 0.851234764850424 
2001	 0.832610695263148 
2002	 0.703126580567407 
2003	 0.851668790578366 
2004	 1.31145805213837 
2005	 1.30969616225489 
2006	 1.3352061317638 
2007	 1.4160807193674 
2008	 1.13251383334737 
2009	 1.09215170176557 
2010	 1.12330620074788 
2011	 1.16095248512866 
2012	 1.43653918399002 
2013	 1.47427949178471 
2014	 1.48517090814668 
2015	 1.26619136181555 
2016	 0.902604505856039 
2017	 0.751260449237718 
2018	 0.598090353817355 
2019	 0.521848445542551 
2020	 0.501927694938078 
2021	 0.496772156805872 
2022	 0.530321649367924 
2023	 0.588448061702705 
2024	 0.613899838969851 
2025	 0.665163398582171 
2026	 0.641630795936001 
2027	 0.564187361624446 
2028	 0.508469738815999 
2029	 0.469465509189758 
2030	 0.477192320306993 
2031	 0.487419381476884 
2032	 0.523240620297927 
2033	 0.559401922262465 
2034	 0.539575887778732 
2035	 0.539185677130405 
2036	 0.560051495019651 
2037	 0.577197404870574 
2038	 0.611682794444039 
2039	 0.616364085283677 
2040	 0.613275339227372 
2041	 0.597422637150703 
2042	 0.530466730375839 
2043	 0.517667205501989 
2044	 0.552839316524259 
2045	 0.613979262760717 
2046	 0.658355663233708 
2047	 0.637205146794624 
2048	 0.609555750707783 
2049	 0.541049117974261 
2050	 0.494441619705823 
2051	 0.499074909801445 
2052	 0.484890972018114 
2053	 0.460722378571567 
2054	 0.4567658639676 
2055	 0.461144990530173 
2056	 0.478507339109375 
2057	 0.519170222307828 
2058	 0.551516573847193 
2059	 0.589718110989544 
2060	 0.640035887601997 
2061	 0.655976623371064 
2062	 0.747080234422153 
2063	 0.822110898808906 
2064	 0.795953548257771 
2065	 0.804057867677737 
2066	 0.76982175128562 
2067	 0.732012803198405 
2068	 0.66917170275266 
2069	 0.645399633424201 
2070	 0.628582752597874 
2071	 0.614948754482406 
2072	 0.575068680476584 
2073	 0.574809491257895 
2074	 0.546456756604667 
2075	 0.470179601685868 
2076	 0.456791014706306 
2077	 0.463545015231855 
2078	 0.459968099319779 
2079	 0.50130229330429 
2080	 0.528725281495814 
2081	 0.511125601139672 
2082	 0.506073496935005 
2083	 0.501233233011337 
2084	 0.482155792545295 
2085	 0.442316901325584 
2086	 0.447307376379889 
2087	 0.4257405749742 
2088	 0.420462500403384 
2089	 0.451626210115014 
2090	 0.442024716099395 
2091	 0.453249073320612 
2092	 0.452087966710904 
2093	 0.409348342188731 
2094	 0.404872820073058 
2095	 0.431505189643289 
2096	 0.444778557495984 
2097	 0.44688796998054 
2098	 0.462409028878149 
2099	 0.485636256687955 
2100	 0.50286531594967 
2101	 0.517359141536652 
2102	 0.555864044006203 
2103	 0.585320777488085 
2104	 0.561466898244257 
2105	 0.509053857083408 
2106	 0.494487643678109 
2107	 0.473154656501673 
2108	 0.433970023554747 
2109	 0.453611727011193 
2110	 0.482758884048912 
2111	 0.456479867757352 
2112	 0.446540171505147 
2113	 0.464985080167049 
2114	 0.462844513146673 
2115	 0.432074387875623 
2116	 0.442434878515843 
2117	 0.477747842665305 
2118	 0.484279450470908 
2119	 0.485906259758137 
2120	 0.516027663079589 
2121	 0.510437680656526 
2122	 0.487639250272805 
2123	 0.480205248481066 
2124	 0.452307623508005 
2125	 0.424537102399515 
2126	 0.414491097194159 
2127	 0.4300657939311 
2128	 0.457280237483411 
2129	 0.481529067467024 
2130	 0.519037749630227 
2131	 0.526264173450213 
2132	 0.513326139313041 
2133	 0.517441853825528 
2134	 0.524464150091615 
2135	 0.515965292023949 
2136	 0.502730007170719 
2137	 0.511849330738221 
2138	 0.493130813387319 
2139	 0.523635090266315 
2140	 0.543149637738464 
2141	 0.531828942302126 
2142	 0.509446390234375 
2143	 0.474038863320029 
2144	 0.458966071339946 
2145	 0.461872647237292 
2146	 0.48370792247816 
2147	 0.491907590891807 
2148	 0.505899720123743 
2149	 0.506366580689633 
2150	 0.499319285615973 
2151	 0.483617521103757 
2152	 0.474159147039005 
2153	 0.450804232642715 
2154	 0.457382959609798 
2155	 0.476609698325894 
2156	 0.502621801296749 
2157	 0.543657362387094 
2158	 0.571711749567408 
2159	 0.562003787636431 
2160	 0.539603083582875 
2161	 0.514026825256221 
2162	 0.453397790341878 
2163	 0.434280642212285 
2164	 0.423168330655292 
2165	 0.408088937771511 
2166	 0.421210405677657 
2167	 0.411968174775272 
2168	 0.392052493650698 
2169	 0.397554540360394 
2170	 0.409615605550497 
2171	 0.406015928041391 
2172	 0.405330768014733 
2173	 0.395816881023819 
2174	 0.346580176816358 
2175	 0.333564736136471 
2176	 0.325862575114664 
2177	 0.362572849477846 
2178	 0.397690303746488 
2179	 0.453549912529165 
2180	 0.507493832400294 
2181	 0.495173801584018 
2182	 0.490680545372138 
2183	 0.471705203332716 
2184	 0.465855493971218 
2185	 0.48649046544547 
2186	 0.470197109052094 
2187	 0.441507508487511 
2188	 0.421515586956858 
2189	 0.429339546727632 
2190	 0.445558317260484 
2191	 0.476953316450495 
2192	 0.496406162407108 
2193	 0.492468220235582 
2194	 0.481631244817304 
2195	 0.468855407232497 
2196	 0.458515733302226 
2197	 0.429767800487668 
2198	 0.431502680215526 
2199	 0.468757108476848 
2200	 0.52177650642863 
2201	 0.591407439342457 
2202	 0.604116862533593 
2203	 0.541212999741257 
2204	 0.506362626380949 
2205	 0.472788750516828 
2206	 0.476825127739476 
2207	 0.50848180693112 
2208	 0.494670271744142 
2209	 0.477844843945303 
2210	 0.462705981261594 
2211	 0.447428148327741 
2212	 0.421089038888489 
2213	 0.376564512182166 
2214	 0.354890893842742 
2215	 0.363428165068813 
2216	 0.406131774052986 
2217	 0.428174409304144 
2218	 0.48366243106769 
2219	 0.505845171821341 
2220	 0.486119008974589 
2221	 0.495499256831897 
2222	 0.534120096136648 
2223	 0.532490460653191 
2224	 0.466054370577028 
2225	 0.429656205195608 
2226	 0.365307103439354 
2227	 0.289230877821252 
2228	 0.321679431845655 
2229	 0.320579465968818 
2230	 0.324053095967092 
2231	 0.365486118979861 
2232	 0.354756248256418 
2233	 0.341379482892014 
2234	 0.334312936071701 
2235	 0.298578896021029 
2236	 0.315848185917931 
2237	 0.356954107254796 
2238	 0.381624734995963 
2239	 0.426937577511532 
2240	 0.446424595762242 
2241	 0.466726306890477 
2242	 0.462554079738359 
2243	 0.426769751181127 
2244	 0.402652345012823 
2245	 0.351920968814312 
2246	 0.350178804051366 
2247	 0.376902567646593 
2248	 0.40662519766776 
2249	 0.489642888357514 
2250	 0.521989676556154 
2251	 0.532144657435115 
2252	 0.540737041261519 
2253	 0.508263891917493 
2254	 0.49178258094354 
2255	 0.489989143119521 
2256	 0.511047148740139 
2257	 0.532187568676398 
2258	 0.556230909721143 
2259	 0.520732795273566 
2260	 0.469015500416039 
2261	 0.490211519700824 
2262	 0.499976198257643 
2263	 0.535322419206488 
2264	 0.595886819945007 
2265	 0.52309807097528 
2266	 0.450057038436169 
2267	 0.437879935546276 
2268	 0.383746378258456 
2269	 0.377680163180791 
2270	 0.362083314847565 
2271	 0.351439029996579 
2272	 0.329769817958971 
2273	 0.33270731014098 
2274	 0.357241946504735 
2275	 0.371016167726336 
2276	 0.374333477887223 
2277	 0.37668191453182 
2278	 0.400941844080299 
2279	 0.3964657454576 
2280	 0.376326476170395 
2281	 0.355390728270117 
2282	 0.293390747213005 
2283	 0.267785745658613 
2284	 0.265220240257824 
2285	 0.248009690159438 
2286	 0.257996771054644 
2287	 0.267564482681873 
2288	 0.313492129435394 
2289	 0.421697528894945 
2290	 0.493873367468916 
2291	 0.481700033046903 
2292	 0.461163575375934 
2293	 0.412686942786985 
2294	 0.419822201721144 
2295	 0.523904386671565 
2296	 0.520433588906089 
2297	 0.473831617347818 
2298	 0.457838639053648 
2299	 0.432065657778172 
2300	 0.443841718622726 
2301	 0.45532395556284 
2302	 0.446436806583503 
2303	 0.395403351738524 
2304	 0.300192346526873 
2305	 0.271214714833188 
2306	 0.256713542144133 
2307	 0.204834449385428 
2308	 0.152283306309482 
2309	 0.101283868838246 
2310	 6.01718366513374E-02 
2311	-1.71436778934508E-02 
2312	-2.58229589969522E-02 
2313	 8.62171663208985E-03 
2314	 5.47305837529914E-02 
2315	 0.149604120392898 
2316	 0.197047980035046 
2317	 0.313027093456406 
2318	 0.326918782048782 
2319	 0.184634645928666 
2320	 0.170572582488544 
2321	 0.143246375930841 
2322	 0.176648435128743 
2323	 0.360012400305407 
2324	 0.444295181550657 
2325	 0.533094488635433 
2326	 0.552810794763141 
2327	 0.464357107251715 
2328	 0.444170268137206 
2329	 0.398822980687401 
2330	 0.370403589671669 
2331	 0.390505949950911 
2332	 0.384663836622429 
2333	 0.379548844457015 
2334	 0.342411763213207 
2335	 0.250112369390277 
2336	 0.240982094809868 
2337	 0.240981759966596 
2338	 0.284606115325976 
2339	 0.396457982827688 
2340	 0.429786303673201 
2341	 0.430647103267122 
2342	 0.49543616683539 
2343	 0.564207704608846 
2344	 0.648544185330463 
2345	 0.691157416560072 
2346	 0.634226416369788 
2347	 0.530247883703437 
2348	 0.500111674889195 
2349	 0.497187884852983 
2350	 0.500721457323222 
2351	 0.486632791307799 
2352	 0.455844677412338 
2353	 0.424755040115721 
2354	 0.470910913501093 
2355	 0.465397507633449 
2356	 0.436017241097714 
2357	 0.417441458885128 
2358	 0.366150785332574 
2359	 0.386910921958909 
2360	 0.398318900909399 
2361	 0.440646948390335 
2362	 0.550298185974235 
2363	 0.644599735256233 
2364	 0.742096265484473 
2365	 0.814089716282891 
2366	 0.792802802425495 
2367	 0.731949878943968 
2368	 0.764951566180969 
2369	 0.785345003236758 
2370	 0.751091219293052 
2371	 0.731758205674716 
2372	 0.666628597440565 
2373	 0.702480736069071 
2374	 0.829173548896407 
2375	 0.958215606018756 
2376	 1.33543021885118 
2377	 1.28769420287491 
2378	 0.943805611316035 
2379	 0.860353937266733 
2380	 0.685881579801229 
2381	 0.690123645585468 
2382	 0.964954421957549 
2383	 1.11825107917513 
2384	 1.26735091380703 
2385	 1.2238742350151 
2386	 0.960311081646351 
2387	 0.888524722791195 
2388	 0.861026281881491 
2389	 0.743867496874378 
2390	 0.630577633585283 
2391	 0.604230961499115 
2392	 0.53497232008175 
2393	 0.451821688059496 
2394	 0.461809253397203 
2395	 0.450466239385407 
2396	 0.331182927409589 
2397	 0.389665297612013 
2398	 0.58884328861745 
2399	 0.742627032559332 
2400	 0.943815582409914 
2401	 1.07316416398414 
2402	 1.17197055383147 
2403	 1.38122492707166 
2404	 1.94035554521851 
2405	 2.29164455567865 
2406	 3.5302618007207 
2407	 2.89356306981836 
2408	 1.2603840087626 
2409	 1.00188170600813 
2410	 0.8908515699825 
2411	 0.777196101864928 
2412	 0.714911861143459 
2413	 0.667013132802779 
2414	 0.589661703966741 
2415	 0.462964359527994 
2416	 0.379012707320591 
2417	 0.404519010750945 
2418	 0.366683199811355 
2419	 0.492036027321532 
2420	 0.943568362438848 
2421	 1.14027992222324 
2422	 1.21087064381315 
2423	 1.26597679621697 
2424	 1.27319260251279 
2425	 1.26152988069254 
2426	 1.19241428244437 
2427	 1.09532371146637 
2428	 0.927397534869483 
2429	 0.82227795613822 
2430	 0.621613549655514 
2431	 0.803610713308369 
2432	 1.95372617063057 
2433	 2.08930561530937 
2434	 2.09990721977963 
2435	 2.05656685746237 
2436	 1.15715532818896 
2437	 1.23740265243352 
2438	 2.12800882057267 
2439	 2.82794444216297 
2440	 6.39065136456762 
2441	 11.3896610232153 
2442	 13.2380064903901 
2443	 6.11530710097063 
2444	 2.65270165862064 
2445	 1.97102680491246 
2446	 1.31918989201275 
2447	 1.15995360375314 
2448	 1.19183900636255 
2449	 0.92002922780296 
2450	 0.694530309557008 
2451	 0.355755516068189 
2452	 0.412511739450866 
2453	 0.603296809242989 
2454	 0.632306133609303 
2455	 0.715087264376071 
2456	 0.783053185569081 
2457	 0.824343941387152 
2458	 0.754558932157614 
2459	 0.586668486614905 
2460	 0.511313124712479 
2461	 0.39612171979941 
2462	 0.330836032122656 
2463	 0.346572272043617 
2464	 0.350909812376113 
2465	 0.34896604855032 
2466	 0.450938501153429 
2467	 0.71648972605523 
2468	 0.859055312409539 
2469	 1.35424219952364 
2470	 1.44676226340719 
2471	 0.79833939300525 
2472	 0.377981515081706 
2473	-0.731129316745191 
2474	-1.22232375754397 
2475	-1.27534531908641 
2476	-1.26573091710122 
2477	-0.577703613827424 
2478	-0.434586303589202 
2479	-0.54535642314714 
2480	-0.443079545274088 
2481	-0.150068031989487 
2482	 0.593304201501244 
2483	 2304.78027239425 
2484	 117.367389245231 
2485	 2.97336465794785 
2486	 2.26433174152628 
2487	 0.869973368707169 
2488	 0.703943249967746 
2489	 1.18771575992518 
2490	 1.22458155256641 
2491	 1.04614935760379 
2492	 1.2005982036765 
2493	 1.38881578747898 
2494	 2.25066790412214 
2495	 133.68234049822 
2496	-244.262096173724 
2497	 10.7872315589475 
2498	 4.28065722602884 
2499	 0.575893620929843 
2500	 0.504911459096909 
