Wavelength	000006.asd
350	 0.182883038948087 
351	 0.182385077849975 
352	 0.182488397503141 
353	 0.184488080048103 
354	 0.185971242814429 
355	 0.185515475102131 
356	 0.184207437115522 
357	 0.185014443621699 
358	 0.185421630189353 
359	 0.185832384389396 
360	 0.186784805322728 
361	 0.188414501385774 
362	 0.187545840374459 
363	 0.186826077789857 
364	 0.188189236427355 
365	 0.188413627903489 
366	 0.188319156237275 
367	 0.188525513997832 
368	 0.18929737606055 
369	 0.189470053757884 
370	 0.190025144952585 
371	 0.19087398488279 
372	 0.191162062609785 
373	 0.190841347778865 
374	 0.191186650477778 
375	 0.192039261950607 
376	 0.191383628649746 
377	 0.192216663926882 
378	 0.193592312763751 
379	 0.194296804793374 
380	 0.194559359402774 
381	 0.195322012070179 
382	 0.196297038725686 
383	 0.196936726787328 
384	 0.197917619087745 
385	 0.198709448714348 
386	 0.199276341082706 
387	 0.199955734684078 
388	 0.201111780001453 
389	 0.201780948039142 
390	 0.201876541564553 
391	 0.202481126788089 
392	 0.202704561550346 
393	 0.203209352084288 
394	 0.204428808475476 
395	 0.205702492305903 
396	 0.206564153533828 
397	 0.207184062098804 
398	 0.207851735420571 
399	 0.208271570735993 
400	 0.209017088506921 
401	 0.21024240876087 
402	 0.211704260077398 
403	 0.212284002812853 
404	 0.212245680803065 
405	 0.212282035423079 
406	 0.21337511693425 
407	 0.214151145631956 
408	 0.214856409484352 
409	 0.215862573511684 
410	 0.216918675638905 
411	 0.217408877976589 
412	 0.21786188837129 
413	 0.218939664049638 
414	 0.219194903064223 
415	 0.219382669053927 
416	 0.220010587389305 
417	 0.221149745662884 
418	 0.221771560892553 
419	 0.222183639153114 
420	 0.222754003786173 
421	 0.223564062628704 
422	 0.223988580897475 
423	 0.224492370376903 
424	 0.225470253413748 
425	 0.225620469235508 
426	 0.22601044993684 
427	 0.226822135587677 
428	 0.227579477220355 
429	 0.228069308746149 
430	 0.228518877438765 
431	 0.229115130647143 
432	 0.229902639069801 
433	 0.230596296962119 
434	 0.231225719631342 
435	 0.231887680763842 
436	 0.232671227180683 
437	 0.233076064917792 
438	 0.233389925166103 
439	 0.23414533933136 
440	 0.234801401566129 
441	 0.235368995511904 
442	 0.235889948981876 
443	 0.236386818617028 
444	 0.236883173441668 
445	 0.237393425200121 
446	 0.23787416798046 
447	 0.238127507201288 
448	 0.238461289166701 
449	 0.238856066627894 
450	 0.239190165964354 
451	 0.239642864262894 
452	 0.240137932161279 
453	 0.240560943130267 
454	 0.240796093544508 
455	 0.241276215532793 
456	 0.241716644011574 
457	 0.241941985450731 
458	 0.24244128284213 
459	 0.242781434302467 
460	 0.243029047665868 
461	 0.24339034773767 
462	 0.243594603189061 
463	 0.243788104325496 
464	 0.244053322663534 
465	 0.244373673735766 
466	 0.244673172302671 
467	 0.244960423701651 
468	 0.24525219520821 
469	 0.245548169495574 
470	 0.245703023306539 
471	 0.245901108325414 
472	 0.24637116322135 
473	 0.246728275492735 
474	 0.246881846906305 
475	 0.247035763459508 
476	 0.247634559945987 
477	 0.247801731522061 
478	 0.247919451174549 
479	 0.248316469493345 
480	 0.248488682852461 
481	 0.248674973761946 
482	 0.249019333345433 
483	 0.249560002186541 
484	 0.249892630003573 
485	 0.250167408897713 
486	 0.250471430114518 
487	 0.250757082920284 
488	 0.25117343023659 
489	 0.251504955356836 
490	 0.251624072522443 
491	 0.251813064029615 
492	 0.252291647470086 
493	 0.252956197609055 
494	 0.253520750585603 
495	 0.253855172920919 
496	 0.253925181394947 
497	 0.253982611321619 
498	 0.254618364793018 
499	 0.254887567871642 
500	 0.255042958966023 
501	 0.255485880113 
502	 0.256005153793609 
503	 0.256369902258527 
504	 0.256701937924891 
505	 0.257289880278542 
506	 0.257791868350448 
507	 0.258110431560664 
508	 0.258306734951865 
509	 0.258632147442821 
510	 0.258907309420769 
511	 0.259209593229462 
512	 0.25963416803471 
513	 0.260034418698151 
514	 0.260609296385833 
515	 0.261230001081003 
516	 0.261524962667517 
517	 0.26171548815726 
518	 0.262107034072314 
519	 0.262681281388696 
520	 0.262759609714268 
521	 0.263099561780222 
522	 0.263571365958711 
523	 0.26385154427721 
524	 0.264206121043259 
525	 0.264581356346238 
526	 0.264990024578337 
527	 0.265506920618536 
528	 0.265798684359383 
529	 0.265873023714619 
530	 0.265919884466937 
531	 0.266380968392213 
532	 0.266913175552154 
533	 0.267374643999882 
534	 0.267732577134011 
535	 0.268068447315016 
536	 0.268333333639496 
537	 0.268568256491359 
538	 0.268940985095275 
539	 0.269199692393646 
540	 0.269412600756162 
541	 0.269704190962547 
542	 0.270071811473407 
543	 0.270387631788194 
544	 0.27064785300025 
545	 0.270926063128027 
546	 0.271136729069726 
547	 0.271381063204185 
548	 0.271674665652966 
549	 0.271808109875363 
550	 0.27225458866979 
551	 0.272768772816311 
552	 0.272966343837452 
553	 0.273094130994127 
554	 0.273243735324187 
555	 0.273436682048408 
556	 0.273634954980305 
557	 0.273929735404486 
558	 0.274210387943736 
559	 0.274375772247366 
560	 0.274456400288171 
561	 0.274612767198639 
562	 0.274820599545911 
563	 0.274976787321813 
564	 0.27515239188266 
565	 0.275306079051974 
566	 0.275423543567262 
567	 0.275543547542594 
568	 0.275690508062715 
569	 0.275797211211285 
570	 0.275833693075549 
571	 0.276049519965045 
572	 0.276211166181374 
573	 0.276291233604173 
574	 0.276425700196734 
575	 0.276563721070624 
576	 0.276797115564321 
577	 0.277081337367609 
578	 0.277000336310503 
579	 0.277118693949335 
580	 0.277362613328314 
581	 0.277469436953409 
582	 0.277693460520582 
583	 0.277854740081483 
584	 0.277911576250444 
585	 0.278009055350525 
586	 0.277987916993335 
587	 0.277972562925288 
588	 0.27806122186799 
589	 0.277954770778944 
590	 0.278014648525812 
591	 0.278210257877804 
592	 0.278271489843735 
593	 0.27829973286793 
594	 0.278346540892403 
595	 0.278432492032778 
596	 0.278538847181496 
597	 0.278539039597663 
598	 0.278595792471515 
599	 0.278853689920943 
600	 0.278965442190791 
601	 0.279064588437911 
602	 0.279122560720806 
603	 0.278979602987539 
604	 0.279157793405056 
605	 0.279376659131423 
606	 0.279347160965297 
607	 0.279081347019251 
608	 0.279239270371194 
609	 0.279584554766477 
610	 0.279506456344391 
611	 0.279400683528538 
612	 0.279320859183278 
613	 0.279316033138404 
614	 0.279468848435609 
615	 0.279778581622375 
616	 0.28001945125219 
617	 0.279979712198031 
618	 0.279738917619496 
619	 0.279614712152881 
620	 0.279739841246858 
621	 0.28006608762824 
622	 0.280104846340111 
623	 0.280026278048904 
624	 0.280080187617182 
625	 0.280484287338629 
626	 0.28055792167042 
627	 0.280469889847049 
628	 0.280636999947719 
629	 0.280597385148976 
630	 0.280596445609347 
631	 0.280730989129563 
632	 0.280881723712525 
633	 0.281191630235908 
634	 0.28143519440984 
635	 0.28144618629601 
636	 0.281456904920195 
637	 0.28146540299031 
638	 0.281477997011788 
639	 0.281525849873692 
640	 0.281867603182249 
641	 0.282199029828547 
642	 0.282318249159928 
643	 0.282315493130058 
644	 0.282344899557205 
645	 0.282162808247548 
646	 0.281642381329902 
647	 0.281910459146396 
648	 0.282288855741447 
649	 0.282485906516621 
650	 0.282678102812915 
651	 0.28290084330138 
652	 0.283030364409725 
653	 0.2830189217766 
654	 0.283073478283436 
655	 0.28312184965651 
656	 0.283230330358513 
657	 0.283459826965277 
658	 0.28359088231292 
659	 0.283723437812237 
660	 0.283856773929266 
661	 0.283854730886728 
662	 0.284110643642558 
663	 0.284187239838129 
664	 0.283831276183169 
665	 0.283991547089641 
666	 0.284145507123625 
667	 0.284217047084197 
668	 0.284354095005519 
669	 0.284219076147407 
670	 0.284271274447979 
671	 0.284582533414088 
672	 0.284452743436427 
673	 0.284296674130405 
674	 0.284315146759405 
675	 0.284550017238722 
676	 0.284686549274036 
677	 0.284618599084981 
678	 0.284472497246415 
679	 0.284518196750396 
680	 0.284287496257747 
681	 0.284333930291644 
682	 0.284849624487768 
683	 0.284953506024215 
684	 0.284798249761961 
685	 0.284615087890397 
686	 0.284654502909742 
687	 0.284963311655864 
688	 0.284726842502996 
689	 0.284171577118481 
690	 0.284511633126405 
691	 0.284752063103257 
692	 0.284643988068052 
693	 0.284373774996798 
694	 0.285090111525784 
695	 0.28556643762344 
696	 0.285741090774354 
697	 0.286053324660567 
698	 0.286242755160196 
699	 0.286417955848282 
700	 0.286622452333201 
701	 0.286796957064561 
702	 0.286871697306711 
703	 0.286960064304451 
704	 0.287199550622024 
705	 0.287697114968802 
706	 0.288249508082198 
707	 0.288660774657001 
708	 0.28884489025108 
709	 0.289339953433974 
710	 0.289820131560156 
711	 0.29008184760862 
712	 0.290209245516054 
713	 0.290853060863639 
714	 0.291472221650701 
715	 0.291479561935577 
716	 0.291369977065205 
717	 0.291420949824335 
718	 0.291826303143683 
719	 0.292518801619722 
720	 0.293458173327073 
721	 0.29409184322491 
722	 0.294404864764355 
723	 0.294718458767655 
724	 0.294873059226069 
725	 0.29529467798332 
726	 0.296295792590683 
727	 0.297074020032863 
728	 0.297839555153416 
729	 0.298474309411973 
730	 0.298755371606204 
731	 0.29954092247696 
732	 0.300488645387813 
733	 0.301211259261256 
734	 0.301472111232697 
735	 0.302016047115152 
736	 0.302813946122617 
737	 0.303557143645657 
738	 0.303866745414179 
739	 0.304543365361952 
740	 0.305476562130027 
741	 0.306038867941546 
742	 0.306219252897153 
743	 0.306673314909674 
744	 0.307542233737578 
745	 0.308159387059223 
746	 0.308487850147694 
747	 0.308853102969226 
748	 0.309457066976235 
749	 0.309643288215911 
750	 0.31003340286958 
751	 0.310509924692571 
752	 0.310593669767578 
753	 0.310818412209269 
754	 0.311175302917373 
755	 0.311550384578128 
756	 0.311773674903764 
757	 0.31199156974918 
758	 0.311936914127665 
759	 0.311304652237828 
760	 0.3108446018696 
761	 0.310828660772487 
762	 0.310939046536151 
763	 0.310674237552433 
764	 0.311943573295928 
765	 0.313042540079159 
766	 0.313487665331371 
767	 0.313744277217506 
768	 0.31392156945628 
769	 0.314094053788862 
770	 0.314253665311709 
771	 0.314218762000625 
772	 0.314457279205691 
773	 0.314751134926152 
774	 0.314752477166492 
775	 0.314941936766013 
776	 0.315053969262814 
777	 0.314979937865602 
778	 0.314816813486913 
779	 0.315082116251685 
780	 0.315284657965271 
781	 0.315148387225809 
782	 0.315067852508805 
783	 0.31502871002249 
784	 0.315208059820242 
785	 0.315594379376003 
786	 0.315306086764112 
787	 0.314969263273813 
788	 0.314812952617659 
789	 0.314793313526101 
790	 0.315034689102321 
791	 0.315162709388745 
792	 0.31507770394679 
793	 0.315076548151347 
794	 0.315492065735508 
795	 0.315812192299809 
796	 0.315654860857812 
797	 0.315394858078182 
798	 0.315522390177569 
799	 0.315663595463199 
800	 0.315350939979036 
801	 0.315473412950594 
802	 0.315583733697097 
803	 0.315558887227594 
804	 0.315578535919634 
805	 0.315749808643828 
806	 0.315834681399082 
807	 0.315811653066345 
808	 0.315998837480247 
809	 0.31573367704894 
810	 0.315568713539736 
811	 0.315875532469468 
812	 0.315293841612043 
813	 0.315189705693765 
814	 0.315228591925696 
815	 0.314454531445429 
816	 0.314449564180508 
817	 0.314439238063102 
818	 0.314369278646733 
819	 0.314723501071118 
820	 0.314742478862479 
821	 0.314914706938995 
822	 0.315297440445675 
823	 0.315228932708073 
824	 0.315266257355127 
825	 0.31542192394481 
826	 0.315528165215114 
827	 0.315211480139489 
828	 0.315502758048256 
829	 0.315997117424479 
830	 0.315980768156935 
831	 0.31597499352473 
832	 0.31626051207966 
833	 0.316343570301598 
834	 0.315621742991299 
835	 0.315703026713653 
836	 0.315814693156027 
837	 0.315866590787151 
838	 0.316488096975093 
839	 0.316415489792005 
840	 0.316277097942857 
841	 0.31647260397813 
842	 0.316524933553661 
843	 0.316705459821564 
844	 0.316644720725785 
845	 0.31625703006019 
846	 0.316673977063209 
847	 0.317133082436861 
848	 0.317064491952614 
849	 0.316339967917112 
850	 0.316492862468379 
851	 0.316508712970313 
852	 0.316547025767234 
853	 0.31730441661218 
854	 0.316758694343976 
855	 0.316347920496463 
856	 0.316707695068538 
857	 0.317235975778667 
858	 0.316900451380713 
859	 0.316472068065666 
860	 0.316540932693685 
861	 0.316978506194501 
862	 0.317009811368386 
863	 0.317025703379633 
864	 0.317287908951559 
865	 0.316979716068556 
866	 0.317283341830611 
867	 0.31793105423948 
868	 0.318170771976134 
869	 0.317424438637261 
870	 0.317305118652589 
871	 0.317555030590566 
872	 0.317314346732204 
873	 0.317402077884042 
874	 0.317725736118731 
875	 0.317743028548826 
876	 0.316919774536595 
877	 0.316692971050486 
878	 0.316718279336222 
879	 0.316821114454411 
880	 0.317114068747967 
881	 0.317300771870318 
882	 0.317219586448188 
883	 0.317086034416982 
884	 0.317467059841779 
885	 0.316973484950857 
886	 0.316490910701485 
887	 0.316725181544691 
888	 0.317267304020082 
889	 0.317081041655064 
890	 0.316885711138268 
891	 0.317125130423056 
892	 0.316259480595966 
893	 0.316547022131914 
894	 0.316639795841606 
895	 0.315080416180438 
896	 0.315954219386303 
897	 0.316350449983955 
898	 0.315969973030615 
899	 0.315688302073092 
900	 0.315231464118035 
901	 0.31504006053375 
902	 0.314433867611976 
903	 0.313072099356821 
904	 0.314079125937263 
905	 0.314581071616685 
906	 0.313676004477438 
907	 0.312229090135863 
908	 0.314020543975773 
909	 0.315686434450575 
910	 0.315531566153276 
911	 0.314449684369094 
912	 0.315457541335232 
913	 0.316048795357381 
914	 0.31510687497599 
915	 0.313498881021669 
916	 0.313764099893555 
917	 0.315069091346311 
918	 0.315671948456045 
919	 0.314272815241848 
920	 0.315311071719391 
921	 0.316049727674707 
922	 0.315227796069823 
923	 0.313776510058106 
924	 0.312877731370642 
925	 0.313363948162787 
926	 0.31443859790774 
927	 0.312936547505226 
928	 0.307540573140346 
929	 0.305829514503417 
930	 0.310265637255303 
931	 0.305845887069783 
932	 0.310224610466682 
933	 0.316846194665617 
934	 0.316129484076087 
935	 0.314133183080168 
936	 0.309234762520828 
937	 0.307258160493573 
938	 0.308667258231384 
939	 0.307848579982771 
940	 0.305378343267968 
941	 0.30172603678545 
942	 0.302785063411427 
943	 0.318840029353238 
944	 0.31923059194034 
945	 0.306925751219489 
946	 0.297407711526734 
947	 0.306055578672157 
948	 0.299145233279838 
949	 0.300692362700927 
950	 0.312581088970331 
951	 0.307952125254209 
952	 0.310152451565501 
953	 0.308886966370388 
954	 0.302171562821032 
955	 0.300427242405734 
956	 0.314124574308553 
957	 0.316773749318804 
958	 0.308702814913316 
959	 0.311026599486406 
960	 0.306776709229424 
961	 0.306690659878616 
962	 0.30963849062746 
963	 0.307206682520895 
964	 0.308477856452143 
965	 0.310436683786783 
966	 0.31004795284832 
967	 0.307008506067169 
968	 0.311873912055102 
969	 0.313935306522906 
970	 0.311346910468077 
971	 0.308667331389676 
972	 0.310271322130981 
973	 0.313505423432829 
974	 0.315721526195495 
975	 0.314997503428165 
976	 0.310686143693018 
977	 0.310037521109472 
978	 0.311316180952953 
979	 0.310933731824284 
980	 0.313388609733379 
981	 0.313163859767259 
982	 0.311286084578917 
983	 0.310204244524972 
984	 0.310211927208513 
985	 0.310660732452675 
986	 0.312040060443255 
987	 0.314305099894672 
988	 0.315998851016747 
989	 0.316897783569504 
990	 0.314755093933779 
991	 0.31133691680534 
992	 0.313477394666657 
993	 0.316838804967088 
994	 0.317086982883721 
995	 0.316110540113733 
996	 0.320224328922886 
997	 0.315429874356601 
998	 0.312353271576221 
999	 0.313612683208069 
1000	 0.313801948699305 
1001	 0.30646511033788 
1002	 0.307154941045132 
1003	 0.309668096011715 
1004	 0.311668937540408 
1005	 0.314544330501924 
1006	 0.315796090596341 
1007	 0.316442501559813 
1008	 0.317066007204143 
1009	 0.316538519103497 
1010	 0.31726299526615 
1011	 0.317421423311169 
1012	 0.31726345584489 
1013	 0.317036628999479 
1014	 0.31483214631645 
1015	 0.314275009466596 
1016	 0.316482799868562 
1017	 0.317115582636506 
1018	 0.318786968361604 
1019	 0.31904576979567 
1020	 0.317243927389641 
1021	 0.315695188360575 
1022	 0.313408844446826 
1023	 0.312634816035474 
1024	 0.310201285048716 
1025	 0.314394566924867 
1026	 0.318725833587708 
1027	 0.319221354926879 
1028	 0.322435350128849 
1029	 0.320988774668712 
1030	 0.319122419192338 
1031	 0.321510795706087 
1032	 0.320585739473196 
1033	 0.317693079072876 
1034	 0.316785345401412 
1035	 0.314646186094593 
1036	 0.314041603709369 
1037	 0.314910325332524 
1038	 0.317521839201765 
1039	 0.318234138293685 
1040	 0.315168604729792 
1041	 0.313212883491901 
1042	 0.312310364206478 
1043	 0.310804921014725 
1044	 0.312210055728416 
1045	 0.314329667750295 
1046	 0.314604097092007 
1047	 0.316297738482388 
1048	 0.31836215146521 
1049	 0.318867000977631 
1050	 0.31816541484856 
1051	 0.318065207092061 
1052	 0.31710481382398 
1053	 0.316345461641884 
1054	 0.31628758566589 
1055	 0.315879324519269 
1056	 0.317729709928546 
1057	 0.317220736993713 
1058	 0.317502564501747 
1059	 0.319084082944329 
1060	 0.317479596254657 
1061	 0.317831134849687 
1062	 0.318010018371015 
1063	 0.316869014852818 
1064	 0.316480450784991 
1065	 0.316610388289255 
1066	 0.315967875485249 
1067	 0.31532538064404 
1068	 0.315854897686264 
1069	 0.316719410199742 
1070	 0.316038812459251 
1071	 0.316646852819818 
1072	 0.318274924434724 
1073	 0.317241835753749 
1074	 0.316170179455006 
1075	 0.315243395931621 
1076	 0.313347749618905 
1077	 0.311858227846975 
1078	 0.312486422390473 
1079	 0.313409556899132 
1080	 0.315650354057759 
1081	 0.315860500502506 
1082	 0.315988619215442 
1083	 0.31673208104673 
1084	 0.316449491233136 
1085	 0.31766171873018 
1086	 0.320755585826576 
1087	 0.321725355128241 
1088	 0.321192095782146 
1089	 0.31927736398128 
1090	 0.316191956886213 
1091	 0.316009353397865 
1092	 0.317548554046655 
1093	 0.319141869776159 
1094	 0.320055236607876 
1095	 0.321208080572369 
1096	 0.321892177115364 
1097	 0.321902787534162 
1098	 0.3214571668446 
1099	 0.320600738221394 
1100	 0.316212282693288 
1101	 0.311020819576854 
1102	 0.308771619772736 
1103	 0.30982567551347 
1104	 0.309266063857495 
1105	 0.309555835755759 
1106	 0.311269452375682 
1107	 0.309422776144806 
1108	 0.311501483238948 
1109	 0.314208469595616 
1110	 0.315076724685353 
1111	 0.313507534701974 
1112	 0.314816272736486 
1113	 0.317493705497844 
1114	 0.316431551994011 
1115	 0.319264792977987 
1116	 0.31487524992606 
1117	 0.307216580302099 
1118	 0.304004509239498 
1119	 0.301041070531301 
1120	 0.312032667992191 
1121	 0.320410003768127 
1122	 0.3168813504405 
1123	 0.301747271331488 
1124	 0.258996645770191 
1125	 0.197766996789134 
1126	 0.194397151044086 
1127	 0.200459953010875 
1128	 0.23941423115171 
1129	 0.243956358332866 
1130	 0.252324321566079 
1131	 0.250921998443131 
1132	 0.232832164513423 
1133	 0.243610970380058 
1134	 0.288732092428005 
1135	 0.326098419043887 
1136	 0.334279657662301 
1137	 0.331237654033889 
1138	 0.320952405276908 
1139	 0.305967781136034 
1140	 0.304727072167778 
1141	 0.313954952720117 
1142	 0.315535861263099 
1143	 0.31533869141776 
1144	 0.311561236060987 
1145	 0.298638087780485 
1146	 0.291011798633671 
1147	 0.284798223692146 
1148	 0.275170006046208 
1149	 0.269378807167511 
1150	 0.292407017414431 
1151	 0.294879956034086 
1152	 0.289946110598509 
1153	 0.292289066642017 
1154	 0.279934972857189 
1155	 0.279511027541229 
1156	 0.285504367805384 
1157	 0.281983935345636 
1158	 0.283627730667112 
1159	 0.288825563146252 
1160	 0.294512750172717 
1161	 0.298477478037261 
1162	 0.307304185719384 
1163	 0.309920714600286 
1164	 0.308408265529814 
1165	 0.308562570169222 
1166	 0.310652589879586 
1167	 0.312604226231115 
1168	 0.314103358754843 
1169	 0.313817963887212 
1170	 0.312264271445682 
1171	 0.309219372511833 
1172	 0.308645075804997 
1173	 0.310426424487068 
1174	 0.311067122048901 
1175	 0.311777812987615 
1176	 0.311520750740887 
1177	 0.309276592690609 
1178	 0.307941796424654 
1179	 0.30698240153011 
1180	 0.306414459246901 
1181	 0.305767313130602 
1182	 0.305971945641358 
1183	 0.307464280760135 
1184	 0.306307959900012 
1185	 0.309228863454359 
1186	 0.311029850332546 
1187	 0.310738858646586 
1188	 0.313222414452382 
1189	 0.311701620402076 
1190	 0.309313910288752 
1191	 0.309887467117283 
1192	 0.309098897242708 
1193	 0.308623199714511 
1194	 0.307948980399252 
1195	 0.308775391052658 
1196	 0.310322105583547 
1197	 0.311354428481455 
1198	 0.315120433826949 
1199	 0.315572282466618 
1200	 0.311925679139642 
1201	 0.311135973342114 
1202	 0.310832956105815 
1203	 0.309963574343672 
1204	 0.309529225509892 
1205	 0.310744137893889 
1206	 0.310560757517942 
1207	 0.311313669595333 
1208	 0.312548172537891 
1209	 0.313470178730894 
1210	 0.314019723282696 
1211	 0.313652772178397 
1212	 0.313448026027428 
1213	 0.313455395028441 
1214	 0.313539351310089 
1215	 0.31337953477719 
1216	 0.31311159700861 
1217	 0.312999218094077 
1218	 0.312564739665243 
1219	 0.311624910601014 
1220	 0.311484462873876 
1221	 0.3117884018989 
1222	 0.311500371055408 
1223	 0.312338645884086 
1224	 0.312694839076934 
1225	 0.312603167897607 
1226	 0.313146756102552 
1227	 0.314291551062144 
1228	 0.315012875516924 
1229	 0.315548615014573 
1230	 0.316988822095313 
1231	 0.316740543585751 
1232	 0.314750535871415 
1233	 0.314439045907089 
1234	 0.313701356316941 
1235	 0.31365233603624 
1236	 0.315411733441043 
1237	 0.31548325455926 
1238	 0.314349252412075 
1239	 0.314691480862378 
1240	 0.315136148240001 
1241	 0.315612711759768 
1242	 0.31764255637667 
1243	 0.31824377078334 
1244	 0.317684422299354 
1245	 0.317141083063149 
1246	 0.315720240688102 
1247	 0.315029682506029 
1248	 0.314989438253136 
1249	 0.315491126003069 
1250	 0.315585843494414 
1251	 0.315980668278614 
1252	 0.316447915361408 
1253	 0.317452895953715 
1254	 0.317573669809476 
1255	 0.317157516839857 
1256	 0.317202684928122 
1257	 0.316807652631466 
1258	 0.315953202773546 
1259	 0.315512495503072 
1260	 0.315394220497009 
1261	 0.313966098730224 
1262	 0.313636596633608 
1263	 0.314782161892913 
1264	 0.315464550860795 
1265	 0.316051875921748 
1266	 0.316511562011056 
1267	 0.31699417269179 
1268	 0.318231598663887 
1269	 0.318456088567114 
1270	 0.318571674218341 
1271	 0.318382306140756 
1272	 0.317378285270215 
1273	 0.316253267253111 
1274	 0.314896567134588 
1275	 0.31446409365464 
1276	 0.313941288034967 
1277	 0.313819011431972 
1278	 0.314504606240653 
1279	 0.314775433944258 
1280	 0.314611805901734 
1281	 0.315001654641437 
1282	 0.316345027093687 
1283	 0.316792167878921 
1284	 0.316964331203468 
1285	 0.317256904404758 
1286	 0.316341757051653 
1287	 0.315482490809314 
1288	 0.314523656891626 
1289	 0.313405189444697 
1290	 0.313495833241843 
1291	 0.314620597968669 
1292	 0.314583382535327 
1293	 0.315275351129368 
1294	 0.314549351182681 
1295	 0.311814917073382 
1296	 0.310912227201437 
1297	 0.310074769603391 
1298	 0.310071191857229 
1299	 0.310920269513554 
1300	 0.311898498058711 
1301	 0.31472228158477 
1302	 0.315569010806138 
1303	 0.314926778823068 
1304	 0.315864971040499 
1305	 0.316891103862636 
1306	 0.316883498449256 
1307	 0.317959796847844 
1308	 0.318841391686725 
1309	 0.314904245464477 
1310	 0.311220467080095 
1311	 0.309340957571997 
1312	 0.306635934689281 
1313	 0.305348356825761 
1314	 0.30608738074472 
1315	 0.306469982269952 
1316	 0.307467164612559 
1317	 0.308140881995886 
1318	 0.309635080195526 
1319	 0.310030126443229 
1320	 0.309284355888203 
1321	 0.309044830156467 
1322	 0.308992601672921 
1323	 0.308643802562966 
1324	 0.307612286863753 
1325	 0.307150638372798 
1326	 0.307578457611461 
1327	 0.3065222199124 
1328	 0.304552638065479 
1329	 0.303029742239463 
1330	 0.299066242005562 
1331	 0.296371603338755 
1332	 0.295647186840797 
1333	 0.295474139310016 
1334	 0.294041871192819 
1335	 0.294083132467076 
1336	 0.293426248954116 
1337	 0.291257107886743 
1338	 0.293507630311523 
1339	 0.29731013448461 
1340	 0.303103068736337 
1341	 0.319119652518353 
1342	 0.323173179549359 
1343	 0.326531582697339 
1344	 0.319750489807896 
1345	 0.270460817548173 
1346	 0.249282275592439 
1347	 0.237012724584184 
1348	 0.221959489588135 
1349	 0.319851181510632 
1350	 0.452113411235149 
1351	 0.76652818418106 
1352	-57.8270095941189 
1353	-1.20622534464987 
1354	-0.342726819759799 
1355	 0.352562004964136 
1356	 0.360368192814097 
1357	-3.56975154496275E-02 
1358	-0.170908260481347 
1359	-0.652948367789737 
1360	-1.48774297016511 
1361	-0.994766026230712 
1362	-0.625445970851527 
1363	-0.524234245735917 
1364	-0.432792734305658 
1365	-0.208552233908125 
1366	 1.6180550499257 
1367	-3.45080475333593 
1368	-1.35379258551978 
1369	-1.83314477888788 
1370	 0.802377755676792 
1371	-0.119391711865531 
1372	-0.230339155211668 
1373	-0.35269834095875 
1374	-0.875118817998589 
1375	-1.02218105908553 
1376	-1.31865774168692 
1377	-1.38217977807394 
1378	-0.506769084436224 
1379	-0.328092883353404 
1380	-0.494422190790797 
1381	-0.311276522227709 
1382	 1.16090759014174 
1383	 3.55215426904492 
1384	 7.01044240159253 
1385	 10.5828349700901 
1386	 7.82632336564578 
1387	 2.84330112699723 
1388	 0.968195867311377 
1389	 4.07569063301319E-02 
1390	-1.2472206813797 
1391	-2.6099257332635 
1392	-3.06876286845355 
1393	 0.120020524130267 
1394	 0.191020507900809 
1395	 0.548358092397324 
1396	 0.499104283507428 
1397	 0.090727035865774 
1398	 0.135548504021134 
1399	 0.422283592604606 
1400	 0.377068336931851 
1401	 5.25894034123221E-02 
1402	-2.62950114445042E-02 
1403	-0.220605722360814 
1404	-0.179404899303462 
1405	 0.511105298940592 
1406	 0.464449563336652 
1407	-7.56281420650198E-02 
1408	-0.12933219508288 
1409	-0.37177896271952 
1410	-0.477127931584571 
1411	 0.101833264600759 
1412	 0.487205895221444 
1413	 0.96974447016129 
1414	 0.866579070409497 
1415	 0.299862327662087 
1416	 0.122470219850138 
1417	-0.198559057217242 
1418	-0.342798572395319 
1419	-0.208753897704899 
1420	-5.76114085771523E-02 
1421	-8.39550935849589E-02 
1422	-0.302943514792286 
1423	-0.63766522942193 
1424	-2.62799223884823 
1425	-12.7703483003324 
1426	 12.6877356646882 
1427	 3.79564339425456 
1428	 0.715770385676658 
1429	-0.295771111217295 
1430	-1.06996990038972 
1431	-1.17396246397638 
1432	-0.827211300680591 
1433	-0.870871216534038 
1434	-0.895267229786671 
1435	-0.987793312899975 
1436	-1.94007403624335 
1437	-1.59542059750873 
1438	-0.652761030340067 
1439	-0.489098300570618 
1440	-0.266198632494398 
1441	-0.115058303864079 
1442	-0.048939086219172 
1443	 7.33314237836547E-03 
1444	-1.13193466874604E-02 
1445	 2.53776934566443E-02 
1446	 3.76177879483395E-02 
1447	 6.64240843109023E-03 
1448	-0.167121947529474 
1449	-6.42741878662038E-02 
1450	 0.106878428578893 
1451	 0.175109290121537 
1452	 0.319930610094175 
1453	 0.384342590518001 
1454	 0.376768924679797 
1455	 0.399040507043403 
1456	 0.405098960618108 
1457	 0.438270847818718 
1458	 0.424790734093895 
1459	 0.395465924056093 
1460	 0.383428709327214 
1461	 0.368630111261842 
1462	 0.327077666858717 
1463	 0.277740708894841 
1464	 0.244902270314453 
1465	 0.161322959085412 
1466	 0.150584520501647 
1467	 0.212701875061001 
1468	 0.23594237838929 
1469	 0.298784124008818 
1470	 0.30480270982356 
1471	 0.231888558880158 
1472	 0.244692739357021 
1473	 0.287097058322977 
1474	 0.28960571209037 
1475	 0.307012159244916 
1476	 0.306693367764897 
1477	 0.269305956950572 
1478	 0.262122810871977 
1479	 0.287896927440182 
1480	 0.276147648549584 
1481	 0.235876785878892 
1482	 0.230510324016971 
1483	 0.216831429158818 
1484	 0.225863209974201 
1485	 0.271796922452561 
1486	 0.283295244995339 
1487	 0.281965995128677 
1488	 0.283603863199204 
1489	 0.276764332087307 
1490	 0.276644796189585 
1491	 0.281080328128029 
1492	 0.283472970115251 
1493	 0.283022636324073 
1494	 0.2871521852461 
1495	 0.297337467415663 
1496	 0.29907073009769 
1497	 0.296239444824424 
1498	 0.298303941574431 
1499	 0.29776400369083 
1500	 0.299323901152447 
1501	 0.306733469586745 
1502	 0.310628604343117 
1503	 0.312003061980336 
1504	 0.312733647299471 
1505	 0.311185369848003 
1506	 0.307648562265429 
1507	 0.306798880664847 
1508	 0.305611348084586 
1509	 0.303836232170124 
1510	 0.303850779676601 
1511	 0.301168058798008 
1512	 0.295323577307075 
1513	 0.293221360488004 
1514	 0.291751925576812 
1515	 0.291342561618092 
1516	 0.293732040673091 
1517	 0.292184674312641 
1518	 0.287021777490855 
1519	 0.288366753927482 
1520	 0.291637761233 
1521	 0.293594807711838 
1522	 0.299188996490582 
1523	 0.302815113916985 
1524	 0.303587023408784 
1525	 0.305186799316425 
1526	 0.309975500616599 
1527	 0.310002274266971 
1528	 0.305548185895593 
1529	 0.304477844717878 
1530	 0.302752593771549 
1531	 0.302399650424754 
1532	 0.30469648793482 
1533	 0.304897219151446 
1534	 0.304871715741984 
1535	 0.303850021457652 
1536	 0.301746804286138 
1537	 0.300115591171228 
1538	 0.294705330526176 
1539	 0.295484044141389 
1540	 0.301376789946142 
1541	 0.304074945943685 
1542	 0.31154081272382 
1543	 0.313243761071219 
1544	 0.308299822064789 
1545	 0.306424384722373 
1546	 0.301286181982928 
1547	 0.301411508628743 
1548	 0.307129254293669 
1549	 0.309598604680664 
1550	 0.315853649474252 
1551	 0.316659894778716 
1552	 0.310442647477006 
1553	 0.307837704801743 
1554	 0.304215262586547 
1555	 0.302101464551896 
1556	 0.302842062798727 
1557	 0.303035833877342 
1558	 0.302689011743449 
1559	 0.302860605367107 
1560	 0.30560187975882 
1561	 0.305100444616776 
1562	 0.301519851661337 
1563	 0.299382186161784 
1564	 0.300076232507308 
1565	 0.300165810308121 
1566	 0.30288662518036 
1567	 0.304671170872283 
1568	 0.300189003896476 
1569	 0.299553120574924 
1570	 0.302236326446275 
1571	 0.304742118437118 
1572	 0.307740102162056 
1573	 0.308377127794773 
1574	 0.306629853599348 
1575	 0.30502499875217 
1576	 0.307393709806015 
1577	 0.308492069100108 
1578	 0.310704759882118 
1579	 0.31381288412098 
1580	 0.313014598716966 
1581	 0.313285970224075 
1582	 0.310848861130258 
1583	 0.306970016216821 
1584	 0.304043257963682 
1585	 0.299894706316941 
1586	 0.298269484011652 
1587	 0.297888238667026 
1588	 0.297869511577222 
1589	 0.299282394869402 
1590	 0.299825694985005 
1591	 0.300818213668172 
1592	 0.300955316861159 
1593	 0.300170106834088 
1594	 0.300605782829968 
1595	 0.300364854699755 
1596	 0.30238389837768 
1597	 0.306851499884019 
1598	 0.309379752196676 
1599	 0.313073070207424 
1600	 0.314287533696153 
1601	 0.313577390109342 
1602	 0.312351223102724 
1603	 0.309131496477947 
1604	 0.308895907194018 
1605	 0.308928289694093 
1606	 0.309389784072055 
1607	 0.312207431550194 
1608	 0.312351487492973 
1609	 0.312348499126108 
1610	 0.308965045702621 
1611	 0.302665576926775 
1612	 0.299785155951567 
1613	 0.294572884018709 
1614	 0.292760667636102 
1615	 0.294277230872159 
1616	 0.296405901069502 
1617	 0.30012655236287 
1618	 0.30173279261133 
1619	 0.305310192688701 
1620	 0.305960104738595 
1621	 0.303500091763929 
1622	 0.302503303428551 
1623	 0.301329575527647 
1624	 0.299638332525864 
1625	 0.296370050580872 
1626	 0.295884690104078 
1627	 0.296624488232636 
1628	 0.297650884737583 
1629	 0.301015010259247 
1630	 0.301764724299912 
1631	 0.30213479002457 
1632	 0.301701345263018 
1633	 0.299512176437681 
1634	 0.298833638251996 
1635	 0.297459260807837 
1636	 0.296673185352708 
1637	 0.296368215153628 
1638	 0.296781475421685 
1639	 0.29899443063222 
1640	 0.298766244756164 
1641	 0.297656955550829 
1642	 0.298367839320772 
1643	 0.298017764428724 
1644	 0.298579462004238 
1645	 0.301074129359048 
1646	 0.302547080825709 
1647	 0.303532083557866 
1648	 0.303791162479872 
1649	 0.305986678557919 
1650	 0.304496609747941 
1651	 0.299647969662973 
1652	 0.295523643054687 
1653	 0.288000161090663 
1654	 0.285847609803904 
1655	 0.286315651679994 
1656	 0.286378558926872 
1657	 0.290721942953756 
1658	 0.289830530536171 
1659	 0.284628364901094 
1660	 0.283257781742312 
1661	 0.281448242613957 
1662	 0.28255568893623 
1663	 0.285503003354002 
1664	 0.288864228298127 
1665	 0.29112259094716 
1666	 0.292688188656681 
1667	 0.294283482460665 
1668	 0.293368541740632 
1669	 0.290713080059963 
1670	 0.289341077213725 
1671	 0.288822623791688 
1672	 0.28996746745576 
1673	 0.293491538076725 
1674	 0.292135765964943 
1675	 0.290628763851785 
1676	 0.292068467897528 
1677	 0.28857291130976 
1678	 0.28700576204895 
1679	 0.288739725647484 
1680	 0.288347267338556 
1681	 0.287063454872936 
1682	 0.288015037298986 
1683	 0.287808832962801 
1684	 0.285131248729487 
1685	 0.288602192357485 
1686	 0.291913787656076 
1687	 0.290977479138495 
1688	 0.291519698997225 
1689	 0.288270248959742 
1690	 0.286768989418319 
1691	 0.289907309506647 
1692	 0.28860779645882 
1693	 0.288400235063308 
1694	 0.286953313732383 
1695	 0.281813267708315 
1696	 0.279286217590557 
1697	 0.276722126342088 
1698	 0.277235199288532 
1699	 0.280078228868123 
1700	 0.283820045852771 
1701	 0.288572123076621 
1702	 0.290123334260436 
1703	 0.293356162930624 
1704	 0.299691258559807 
1705	 0.303131058417911 
1706	 0.303951224518075 
1707	 0.304810529719507 
1708	 0.301122944755545 
1709	 0.300550487093931 
1710	 0.305811048186882 
1711	 0.302796501585768 
1712	 0.301287381604557 
1713	 0.301280565094445 
1714	 0.298598705398459 
1715	 0.298747881391205 
1716	 0.296416031672412 
1717	 0.293147465685982 
1718	 0.289558575211854 
1719	 0.290182090791657 
1720	 0.291456802874758 
1721	 0.291179062285517 
1722	 0.288923213484676 
1723	 0.285709715361004 
1724	 0.282302079915467 
1725	 0.281805181055291 
1726	 0.281364760379226 
1727	 0.281699382163268 
1728	 0.284617743441598 
1729	 0.285712976491196 
1730	 0.287702428111239 
1731	 0.288433206259157 
1732	 0.287869096477794 
1733	 0.29073080426941 
1734	 0.293906945158069 
1735	 0.292743652785862 
1736	 0.290050986334988 
1737	 0.288531839963372 
1738	 0.284387597615849 
1739	 0.282319335383043 
1740	 0.280094303450777 
1741	 0.27442115832271 
1742	 0.280882817107223 
1743	 0.285501066915545 
1744	 0.288698862410355 
1745	 0.289211587093199 
1746	 0.276328159700727 
1747	 0.269432513250173 
1748	 0.274196949841275 
1749	 0.280956763297401 
1750	 0.282982561133334 
1751	 0.281223238676912 
1752	 0.280160142192729 
1753	 0.280849838940508 
1754	 0.293690130569168 
1755	 0.313454351931482 
1756	 0.324575075953921 
1757	 0.326650671462898 
1758	 0.319771419780425 
1759	 0.307808130536985 
1760	 0.294219441585041 
1761	 0.289722574835962 
1762	 0.29021984597808 
1763	 0.286470681378396 
1764	 0.286926047881728 
1765	 0.280921945849111 
1766	 0.274041039264045 
1767	 0.271682586096641 
1768	 0.271827221906477 
1769	 0.273830163779221 
1770	 0.276356107675927 
1771	 0.303810055404695 
1772	 0.324084571169394 
1773	 0.316500092427175 
1774	 0.324045377331639 
1775	 0.31299307121853 
1776	 0.290335561634028 
1777	 0.316441622419557 
1778	 0.311312157655938 
1779	 0.285450454028136 
1780	 0.291649054382764 
1781	 0.295194427104128 
1782	 0.297194177235275 
1783	 0.279678733350002 
1784	 0.278105415753729 
1785	 0.281813452761857 
1786	 0.278262017512386 
1787	 0.291755768880628 
1788	 0.268449200650876 
1789	 0.20876519767857 
1790	 0.180475632757677 
1791	 0.151381701219451 
1792	 8.44384461010415E-02 
1793	 2.96053305535711E-02 
1794	 1.65370873240966E-02 
1795	 4.21218544987134E-02 
1796	 0.184104434293406 
1797	 0.272374800787655 
1798	 0.180359269387823 
1799	 5.02037620697352E-02 
1800	-0.117736347203021 
1801	 0.637235532732105 
1802	 0.683772295677831 
1803	 0.811133262826003 
1804	 0.851207001331684 
1805	 0.856358983313971 
1806	 0.705277474471081 
1807	 0.716227236076956 
1808	 0.726890577542578 
1809	 0.739644167329965 
1810	 0.875703837797865 
1811	 0.936817321464855 
1812	 0.949621979736727 
1813	 0.880470269662377 
1814	 0.758923465877791 
1815	 0.709287936164424 
1816	 0.655482919382857 
1817	 0.578630099868367 
1818	 0.572584701966743 
1819	 0.633169175336983 
1820	 0.646709956973628 
1821	 0.706521778147318 
1822	 0.698866908531131 
1823	 0.490185970045439 
1824	 0.457973541969854 
1825	 0.390316378088845 
1826	 0.597615015745217 
1827	 0.759362698716455 
1828	 1.26285467733222 
1829	 1.2701402402845 
1830	 1.01672491496932 
1831	 0.947152759044559 
1832	 0.743641547737546 
1833	 0.675533538625603 
1834	 0.738432087719042 
1835	 0.726373869313954 
1836	 0.706553240916802 
1837	 0.712321638082442 
1838	 0.67963566933471 
1839	 0.59286977705734 
1840	 0.54496064665636 
1841	 0.451303827888119 
1842	 0.441280800430828 
1843	 0.493003126373089 
1844	 0.525700215354372 
1845	 0.60834629452128 
1846	 0.698324872777409 
1847	 0.72252398405938 
1848	 0.792743061233668 
1849	 0.670585169371378 
1850	 0.356140526582496 
1851	 0.235810166399689 
1852	-1.71238737008977E-02 
1853	-7.33950734875838E-02 
1854	 4.73768576990522E-02 
1855	 0.162707350068586 
1856	 0.32906885619919 
1857	 0.600872985286463 
1858	 0.689118226955026 
1859	 0.826687085167262 
1860	 0.871620086320996 
1861	 0.750797594272733 
1862	 0.691404849201528 
1863	 0.578604451929722 
1864	 0.568595265485131 
1865	 0.576444298580096 
1866	 0.588284484695289 
1867	 0.646513350441063 
1868	 0.933114890749068 
1869	 0.94681738687211 
1870	 0.808964512003992 
1871	 0.685146869572473 
1872	 0.348899431549827 
1873	 0.250359466824521 
1874	 0.297027911543957 
1875	 0.271559577596429 
1876	 0.243327086008596 
1877	 0.316366262106975 
1878	 0.380027361680023 
1879	 0.360477864316512 
1880	 0.496202311150405 
1881	 1.01420501076143 
1882	 1.08800621809446 
1883	 1.02645411675667 
1884	 0.967034140362223 
1885	 0.478382760910718 
1886	 0.363292895622471 
1887	 0.478064295735198 
1888	 0.524670221378299 
1889	 0.568244410199331 
1890	 0.706023374998334 
1891	 0.73132559502892 
1892	 0.630109384572136 
1893	 0.658088098223647 
1894	 0.684511613789561 
1895	 0.786805898018726 
1896	 1.40301304926471 
1897	 1.49987281901081 
1898	 1.23438615151789 
1899	 0.994298993558877 
1900	 0.822490771098655 
1901	 0.464740946802051 
1902	 0.419351744802662 
1903	 0.56419890960236 
1904	 0.600268533711053 
1905	 0.657514629851937 
1906	 0.75912082770587 
1907	 0.900774609243891 
1908	 0.96472778860738 
1909	 1.1598254642139 
1910	 1.14247822592342 
1911	 1.06968750778249 
1912	 0.736521854819643 
1913	 0.75926095176188 
1914	 0.888961696021877 
1915	 1.02432792299714 
1916	 1.73681916224369 
1917	 1.81371158308957 
1918	 1.41017298689332 
1919	 1.15374705174911 
1920	 0.750148653053415 
1921	 0.486386470585524 
1922	 0.429863663015186 
1923	 0.561977468353867 
1924	 0.59344787820721 
1925	 0.667366332398384 
1926	 0.751578443226906 
1927	 0.996259126970667 
1928	 1.06334888399402 
1929	 1.03692591833992 
1930	 0.988868557202644 
1931	 0.899678679301054 
1932	 0.751638289676192 
1933	 0.726105900012773 
1934	 0.828557096628245 
1935	 0.872588366992058 
1936	 0.962184028874652 
1937	 0.935781425348369 
1938	 0.888188574263509 
1939	 0.829754048657084 
1940	 0.731542236356017 
1941	 0.547493424095009 
1942	 0.454330105712 
1943	 0.308873384796715 
1944	 0.192593958769737 
1945	 0.420360708237794 
1946	 0.493575824901853 
1947	 0.585052654484053 
1948	 0.666047432533736 
1949	 0.64907621712795 
1950	 0.687643005961607 
1951	 0.777682679723484 
1952	 0.906308545824282 
1953	 1.12201612956706 
1954	 1.31090249444894 
1955	 1.30464649139625 
1956	 1.24625796598477 
1957	 0.992506731353905 
1958	 0.751002548646189 
1959	 0.629089254900612 
1960	 0.483382661391223 
1961	 0.440927600567339 
1962	 0.616850372374196 
1963	 0.650077126801433 
1964	 0.643062315383801 
1965	 0.682433213367446 
1966	 0.638298981717232 
1967	 0.533650388188839 
1968	 0.571802422844793 
1969	 0.673944463200616 
1970	 0.662467588266146 
1971	 0.64293866922575 
1972	 0.617702291262257 
1973	 0.464410987914042 
1974	 0.419988688922312 
1975	 0.469700043705453 
1976	 0.471615048148841 
1977	 0.495440586404843 
1978	 0.49549297271685 
1979	 0.44433508563541 
1980	 0.39971097393656 
1981	 0.429272395889798 
1982	 0.531302541314414 
1983	 0.562821866608839 
1984	 0.663174408648997 
1985	 0.660217197233361 
1986	 0.503105645276617 
1987	 0.455048702344971 
1988	 0.422559779682709 
1989	 0.376686640097821 
1990	 0.404048414935236 
1991	 0.47477708646466 
1992	 0.496933338203407 
1993	 0.503763960752824 
1994	 0.48159415409928 
1995	 0.437399083655752 
1996	 0.400562539792976 
1997	 0.324596929525693 
1998	 0.313238572569542 
1999	 0.32630698823996 
2000	 0.345366369434703 
2001	 0.432353534346555 
2002	 0.532931924617016 
2003	 0.549758053419832 
2004	 0.57027872681087 
2005	 0.537519394421787 
2006	 0.610947415384412 
2007	 0.785088064577091 
2008	 0.971810970705167 
2009	 1.0473447420965 
2010	 1.12276885212793 
2011	 1.08651116973371 
2012	 0.921194838014519 
2013	 0.838139771357226 
2014	 0.74069648302502 
2015	 0.687203083136249 
2016	 0.716779308448585 
2017	 0.642526844709483 
2018	 0.59323377052926 
2019	 0.548682096023 
2020	 0.455911226562921 
2021	 0.416057891070224 
2022	 0.386597972112877 
2023	 0.366735454964268 
2024	 0.371109661590867 
2025	 0.413189141246143 
2026	 0.439019455973243 
2027	 0.464702076362018 
2028	 0.489585303380677 
2029	 0.519218846959695 
2030	 0.486021210027938 
2031	 0.455642175579217 
2032	 0.484565656000306 
2033	 0.50897645991297 
2034	 0.489559935729286 
2035	 0.469663578577383 
2036	 0.45876630244009 
2037	 0.441236639797027 
2038	 0.395498249685131 
2039	 0.383848583115828 
2040	 0.379860183281337 
2041	 0.380607034933782 
2042	 0.382625170978415 
2043	 0.43546871732154 
2044	 0.478435705988601 
2045	 0.506652515576056 
2046	 0.511565807460046 
2047	 0.520749019501495 
2048	 0.462151906056492 
2049	 0.4282346874714 
2050	 0.434495961311663 
2051	 0.378352887498201 
2052	 0.36520530706415 
2053	 0.414790779885018 
2054	 0.424885281312141 
2055	 0.408931610450519 
2056	 0.428455932988978 
2057	 0.438378837085375 
2058	 0.385804723232603 
2059	 0.357878643625146 
2060	 0.316007013038594 
2061	 0.242638053999077 
2062	 0.260533426952575 
2063	 0.297806743609151 
2064	 0.343259431299704 
2065	 0.455059887083529 
2066	 0.463175076719669 
2067	 0.496330794490721 
2068	 0.56650710423783 
2069	 0.547535839033267 
2070	 0.458244770232231 
2071	 0.441556845988239 
2072	 0.404669228902602 
2073	 0.350919390770462 
2074	 0.385290823610182 
2075	 0.427147412874479 
2076	 0.410587791000309 
2077	 0.422207235741838 
2078	 0.424595365058627 
2079	 0.403756337852401 
2080	 0.434013360541625 
2081	 0.435367466209278 
2082	 0.444791662078934 
2083	 0.47942170569706 
2084	 0.488923590441467 
2085	 0.483294150575351 
2086	 0.47999372609587 
2087	 0.462765998878778 
2088	 0.419620455507892 
2089	 0.366503293926241 
2090	 0.371241457914872 
2091	 0.372501461041394 
2092	 0.3985189377332 
2093	 0.464460349899136 
2094	 0.434349748867679 
2095	 0.413013480512423 
2096	 0.413926379504371 
2097	 0.382819128500459 
2098	 0.375860865732662 
2099	 0.371489000279096 
2100	 0.382639890625489 
2101	 0.372675045737429 
2102	 0.35341757030125 
2103	 0.337632163941524 
2104	 0.340196664220821 
2105	 0.322281552957746 
2106	 0.342317654985415 
2107	 0.374724288674927 
2108	 0.366622591269943 
2109	 0.377341649026492 
2110	 0.385663666817571 
2111	 0.396369943206729 
2112	 0.397868484069374 
2113	 0.403834142264323 
2114	 0.404828131211411 
2115	 0.374566333162063 
2116	 0.365128476635775 
2117	 0.371693745242054 
2118	 0.370252340941256 
2119	 0.368068221521729 
2120	 0.380031339160967 
2121	 0.362959868219279 
2122	 0.367358272044297 
2123	 0.358213767328026 
2124	 0.324855909986855 
2125	 0.323782641243617 
2126	 0.315016403460619 
2127	 0.316550761828605 
2128	 0.359607761435936 
2129	 0.399769777016899 
2130	 0.444147068033691 
2131	 0.470141567799901 
2132	 0.458813078471758 
2133	 0.446622934530453 
2134	 0.410677765678042 
2135	 0.392780005375415 
2136	 0.36932000392587 
2137	 0.3631780326854 
2138	 0.379534567822972 
2139	 0.380743673007641 
2140	 0.3950073102202 
2141	 0.398627144688357 
2142	 0.377326264965392 
2143	 0.364181086341092 
2144	 0.345333547849811 
2145	 0.330828748602816 
2146	 0.326275320608582 
2147	 0.341185176343543 
2148	 0.348096399778908 
2149	 0.366164709452495 
2150	 0.383918358920523 
2151	 0.403709737953979 
2152	 0.404882364389542 
2153	 0.40061824214964 
2154	 0.403807273692744 
2155	 0.397116416536742 
2156	 0.400123497563461 
2157	 0.416463782239844 
2158	 0.431237179874994 
2159	 0.418412343690056 
2160	 0.416360658879577 
2161	 0.417793605656784 
2162	 0.390447854728765 
2163	 0.389637171670388 
2164	 0.373691454602232 
2165	 0.332493934546218 
2166	 0.32530776450092 
2167	 0.28621792567959 
2168	 0.255395968394203 
2169	 0.252684809063589 
2170	 0.258393518272921 
2171	 0.27764760363797 
2172	 0.340827901938986 
2173	 0.370964836449657 
2174	 0.392246471448231 
2175	 0.399093769057332 
2176	 0.376568483334196 
2177	 0.379134883455972 
2178	 0.369290837426454 
2179	 0.362046982671547 
2180	 0.366223496092075 
2181	 0.372459729351555 
2182	 0.380191294380657 
2183	 0.393825345011092 
2184	 0.411400399452184 
2185	 0.385316900120528 
2186	 0.347122883565023 
2187	 0.346986991425818 
2188	 0.343933814444409 
2189	 0.343971263072745 
2190	 0.335509068686804 
2191	 0.323288490709782 
2192	 0.304784141292706 
2193	 0.258140447236838 
2194	 0.241570317233654 
2195	 0.236759995909251 
2196	 0.23063552269411 
2197	 0.232359929257283 
2198	 0.255657987656005 
2199	 0.274359918180465 
2200	 0.27921634732244 
2201	 0.300154753878176 
2202	 0.328022569883268 
2203	 0.327293066599484 
2204	 0.356842351991258 
2205	 0.355510458667517 
2206	 0.316605214154461 
2207	 0.337054058597149 
2208	 0.345919790824069 
2209	 0.362962258686862 
2210	 0.459554381097889 
2211	 0.509432273338525 
2212	 0.502763645838952 
2213	 0.488275847382961 
2214	 0.445692537177252 
2215	 0.429547400415478 
2216	 0.411982427893858 
2217	 0.417615877927764 
2218	 0.468621975301779 
2219	 0.463823212892765 
2220	 0.430452455686108 
2221	 0.405463203850399 
2222	 0.361928753835848 
2223	 0.319902364566498 
2224	 0.287246531584365 
2225	 0.30728539061135 
2226	 0.309433852474966 
2227	 0.280401467313931 
2228	 0.28085961033315 
2229	 0.269096839256195 
2230	 0.276096699466809 
2231	 0.316908895045575 
2232	 0.362875023417743 
2233	 0.38699397048342 
2234	 0.378389958966814 
2235	 0.38584246797088 
2236	 0.385834182414197 
2237	 0.383823839250395 
2238	 0.389432339438419 
2239	 0.392042865651416 
2240	 0.395070760031976 
2241	 0.369651884771407 
2242	 0.3585630986212 
2243	 0.342963576655588 
2244	 0.349150917674025 
2245	 0.388321258957679 
2246	 0.398221865281622 
2247	 0.402639720174171 
2248	 0.397751213940134 
2249	 0.365928465586908 
2250	 0.359960391175761 
2251	 0.371863041262358 
2252	 0.358602380416778 
2253	 0.384022414288882 
2254	 0.36964772322216 
2255	 0.358891187651319 
2256	 0.402961488166583 
2257	 0.36903171388499 
2258	 0.387668314307029 
2259	 0.396246808411225 
2260	 0.363908900263816 
2261	 0.395443952090539 
2262	 0.385373749423368 
2263	 0.418209653090595 
2264	 0.456394235425975 
2265	 0.427672894472998 
2266	 0.436937644324996 
2267	 0.398417812247035 
2268	 0.338758147343783 
2269	 0.342701779738774 
2270	 0.329663881278663 
2271	 0.3264569410224 
2272	 0.345247113777916 
2273	 0.351042482809471 
2274	 0.34934017827908 
2275	 0.366430475818751 
2276	 0.39537700798057 
2277	 0.4255097661645 
2278	 0.471108822371331 
2279	 0.490210137694254 
2280	 0.479689496459559 
2281	 0.486015352111704 
2282	 0.501995932731308 
2283	 0.510418383039894 
2284	 0.502173063374042 
2285	 0.554613111354361 
2286	 0.591046287139932 
2287	 0.545389559379921 
2288	 0.534230339959163 
2289	 0.488957651446786 
2290	 0.424953004443573 
2291	 0.407950351205154 
2292	 0.387121994031086 
2293	 0.371551573131468 
2294	 0.327318070639557 
2295	 0.292594352666993 
2296	 0.286213905516266 
2297	 0.284602898489094 
2298	 0.3178825432888 
2299	 0.306067935303155 
2300	 0.256621262728572 
2301	 0.190897457071632 
2302	 0.162292931365224 
2303	 0.165956079231916 
2304	 0.167622418720313 
2305	 0.190688808311739 
2306	 0.231950424890467 
2307	 0.289221860759571 
2308	 0.340902134306048 
2309	 0.43541639768194 
2310	 0.463187430606498 
2311	 0.472595924926374 
2312	 0.447248668497163 
2313	 0.345109755709656 
2314	 0.313542096521593 
2315	 0.270516514394903 
2316	 0.266723364393505 
2317	 0.337029733169716 
2318	 0.350168657115271 
2319	 0.347507205060235 
2320	 0.371726613483127 
2321	 0.400369644902253 
2322	 0.400193604905333 
2323	 0.391008682281769 
2324	 0.434646694590028 
2325	 0.49095746700417 
2326	 0.490833371392709 
2327	 0.513156078775194 
2328	 0.50639508523035 
2329	 0.37399910647966 
2330	 0.389093346595236 
2331	 0.558098106397575 
2332	 0.612763530955236 
2333	 0.719200116244736 
2334	 0.712615534994141 
2335	 0.557922824740916 
2336	 0.435053420289288 
2337	 0.356842553429286 
2338	 0.374879594281804 
2339	 0.445306108054231 
2340	 0.483577705303673 
2341	 0.462625203276799 
2342	 0.412439172221438 
2343	 0.428448895252027 
2344	 0.430040699562255 
2345	 0.53015507474695 
2346	 0.713792388952525 
2347	 0.620775339556053 
2348	 0.570023761458302 
2349	 0.603232965827679 
2350	 0.512033459232712 
2351	 0.554393232721826 
2352	 0.60741904714867 
2353	 0.510510508018407 
2354	 0.513184884403731 
2355	 0.424841381350874 
2356	 0.282869355238179 
2357	 0.391290270152754 
2358	 0.427369966610712 
2359	 0.518926424337448 
2360	 0.733422997904057 
2361	 0.704752267062094 
2362	 0.72281712501466 
2363	 0.83966721789786 
2364	 0.942931173575002 
2365	 0.942813132033532 
2366	 0.974023543435532 
2367	 0.959093428704813 
2368	 0.725949850257074 
2369	 0.626948877913083 
2370	 0.643193445950451 
2371	 0.551254043897225 
2372	 0.426197014940368 
2373	 0.371525388384679 
2374	 0.285419617248412 
2375	 0.222024865034478 
2376	 0.143384442296923 
2377	 0.180240445387003 
2378	 0.330862533822549 
2379	 0.435023598610586 
2380	 0.653464976996004 
2381	 0.829407559310525 
2382	 0.860063422286965 
2383	 0.928929086773161 
2384	 1.28818284703049 
2385	 1.29852239919081 
2386	 0.857172915273807 
2387	 0.889210289984597 
2388	 1.11002096030835 
2389	 1.04330034982358 
2390	 1.09350807281305 
2391	 1.02735358269362 
2392	 0.705415300898527 
2393	 0.685887409762306 
2394	 0.838383182260816 
2395	 0.901405802124055 
2396	 0.981127253677682 
2397	 1.06935818838213 
2398	 1.17136814752996 
2399	 1.20005344791832 
2400	 1.21829256461431 
2401	 1.19369240617703 
2402	 1.09488541276908 
2403	 1.04927252926995 
2404	 1.00720787754168 
2405	 0.966732396638903 
2406	 0.939843380928644 
2407	 0.859605856738397 
2408	 0.748131992948716 
2409	 0.685084182517577 
2410	 0.615664708083631 
2411	 0.570173746779816 
2412	 0.554588395014948 
2413	 0.534370816384777 
2414	 0.493014905636742 
2415	 0.536928854609289 
2416	 0.626864443386084 
2417	 0.703583055680501 
2418	 0.868451268325727 
2419	 0.949831036589013 
2420	 1.12299234275439 
2421	 1.019667689826 
2422	 0.680009474267965 
2423	 0.507152091440495 
2424	 0.312331296758141 
2425	 0.226818192045732 
2426	 0.184122832770487 
2427	 0.240281026016757 
2428	 0.387757103727061 
2429	 0.477466100638776 
2430	 0.764860315713315 
2431	 0.866530883929703 
2432	 0.723809045672278 
2433	 0.677017097522534 
2434	 0.602482715371082 
2435	 0.562273246526842 
2436	 0.447924286043435 
2437	 0.532659297392884 
2438	 0.749228344833725 
2439	 0.824483286645709 
2440	 0.931759406771021 
2441	 1.01386296685126 
2442	 1.048551909395 
2443	 1.16758020851629 
2444	 1.45833476541435 
2445	 1.73381229006359 
2446	 3.87763398434621 
2447	 1.93823118464943 
2448	 0.795154981154707 
2449	 0.397630982593628 
2450	 0.268861051747116 
2451	 0.277847151205584 
2452	 0.281039947576044 
2453	 0.265642519053349 
2454	 0.516075769073392 
2455	 0.803327801142854 
2456	 0.985363654552769 
2457	 1.7179561014344 
2458	 1.89403782966787 
2459	 1.60616100732645 
2460	 1.81390636169694 
2461	 3.01214071637603 
2462	 3.57194664817534 
2463	 4.81526459685793 
2464	 4.46336140992726 
2465	 1.94936642833093 
2466	 1.32568417019784 
2467	 0.935527528410715 
2468	 0.786370064055952 
2469	 0.699262994677787 
2470	 0.75860576746135 
2471	 1.17077883357251 
2472	 1.36159028139603 
2473	 1.77095057955055 
2474	 1.90947037741738 
2475	 1.19211762653601 
2476	 0.956636843225584 
2477	 0.847258627083662 
2478	 0.817154126863367 
2479	 0.892566205491295 
2480	 0.934222850949383 
2481	 1.10460184150313 
2482	 1.23410516616166 
2483	 1.14091403987577 
2484	 1.36703436918623 
2485	 1.70924246248814 
2486	 2.09890236499209 
2487	 5.77618237651909 
2488	 14.0083000655022 
2489	-23.7166993916377 
2490	 19.4966831935649 
2491	 2.93463770727047 
2492	 1.81013145933711 
2493	 1.3240882957437 
2494	 1.1903086194971 
2495	 1.06153045480723 
2496	 0.985251643528307 
2497	 0.951239425071805 
2498	 0.969935453225884 
2499	 1.12767725296951 
2500	 0.834349766489974 
